Devices
1000
,,Myon - Voltage,,,,,,,,,,,,,
Frame,Sub Frame,GC-M,TA,SOL,VM,VL,RF,BF,ST,GLUT-M,EO,Gracilis,GC-L,Semimembranosus
,,V,V,V,V,V,V,V,V,V,V,V,V,V
1,0,0.00915527,0.0228882,0.039978,0.0170898,0.0192261,-0.0250244,0.020752,0.00854492,0.0521851,0.0219727,-0.0418091,0.0222778,0.0341797
1,1,-0.00183105,0.0326538,0.0509644,0.0228882,0.0170898,0.0149536,0.0164795,0.0238037,0.0115967,0.0234985,0.000305176,0.0259399,0.0228882
1,2,0.0238037,0.0439453,0.0112915,0.0213623,0.00701904,-0.039978,0.00488281,0.0222778,0.00183105,0.00946045,-0.03479,0.0714111,0.0231934
1,3,0.0302124,0.0411987,0.0665283,0.0369263,0.015564,0.00213623,0.0872803,0.0164795,0.0183105,-0.00823975,-0.0274658,0.038147,0.0265503
1,4,0.039978,0.0299072,0.0650024,0.00793457,0.0308228,0.0274658,0.0531006,0.0088501,0.0219727,0.0210571,-0.0354004,0.0326538,0.0332642
2,0,0.0344849,0.0256348,0.0698853,0.0369263,0.0280762,0.0216675,-0.0482178,0.0183105,0.0125122,-0.0183105,-0.0250244,0.0268555,0.0442505
2,1,0.100403,0.0488281,0.0500488,0.108643,0.0332642,0.0216675,0.0759888,0.00671387,0.0186157,0.0585938,-0.0140381,0.0265503,0.0857544
2,2,0.039978,0.0201416,0.0366211,0.0286865,0.0216675,0.0546265,0.0222778,0.0186157,0.067749,0.00366211,-0.0360107,0.0372314,0.0195312
2,3,0.0198364,0.0286865,0.0167847,0.0326538,0.0137329,0.0302124,0.0137329,-0.00152588,0.0231934,0.0253296,-0.0292969,0.0335693,0.0283813
2,4,0.0213623,0.0152588,0.0668335,0.03479,0.0259399,0.0210571,0.0183105,0.0143433,0.0262451,0.0100708,-0.0439453,0.0494385,0.0274658
3,0,0.0308228,-0.0228882,0.0177002,0.0259399,-0.0228882,0.0161743,0.0158691,-0.0457764,0.00579834,0.0164795,-0.022583,0.015564,0.0366211
3,1,0.0454712,0.0656128,-0.00274658,0.0344849,-0.0137329,0.0143433,0.000305176,0.00244141,0.0222778,0.00946045,-0.0308228,0.0482178,0.0527954
3,2,0.0317383,-0.0177002,0.0134277,0.0323486,0.0167847,0.0180054,0.00946045,-0.0012207,0.0149536,0.0204468,-0.039978,0.0143433,0.0283813
3,3,0.0262451,-0.0268555,0.00305176,0.0390625,0.0292969,0.0268555,0.0219727,0,0.00823975,0.0106812,-0.015564,0.0299072,0.0259399
3,4,0.0213623,0.022583,0.0259399,0.0552368,0.0238037,-0.0167847,0.00762939,0.0186157,-0.0363159,0.00762939,-0.0238037,-0.0354004,0.0231934
4,0,0.0152588,0.0274658,0.00610352,0.0369263,-0.00976562,0.0317383,0.0222778,0.0323486,0.0219727,0.0128174,-0.0238037,0.0250244,0.0234985
4,1,0.038147,0.0360107,0.0088501,0.0250244,0.0274658,0.0198364,0.0109863,0.00518799,0.0213623,-0.00579834,-0.0350952,0.0234985,0.0952148
4,2,0.0183105,0.0265503,0.0256348,-0.0195312,0.0253296,0.0234985,0.0308228,0.0177002,0.0259399,0.0125122,-0.0286865,0.0289917,0.0335693
4,3,0.0128174,0.0372314,0.0341797,0.0259399,0.0222778,0.0170898,0.032959,0.022583,0.0216675,-0.0109863,-0.0238037,0.0299072,0.0445557
4,4,0.0350952,0.0012207,0.0311279,0.0161743,-0.0189209,0.0268555,0.020752,0.0967407,0.0253296,0.00793457,-0.0360107,0.0161743,0.0286865
5,0,0.0271606,0.0445557,0.0408936,0.0485229,0.0332642,0.0299072,0.00427246,-0.027771,0.00793457,0.0192261,-0.0109863,0.0268555,0.038147
5,1,0.0247192,0.0448608,0.0421143,0.0439453,0.032959,0.00640869,0.0198364,0.0167847,0.00732422,0.00549316,-0.0335693,0.0271606,0.0271606
5,2,0.0442505,0.0317383,0.0738525,0.0112915,0.0305176,0.0177002,0.0222778,0.0128174,0.0109863,0.0283813,-0.0332642,0.0219727,0.0238037
5,3,0.0405884,0.022583,0.0558472,0.06073,0.0299072,0.0250244,0.0146484,0.00366211,-0.00579834,0.0180054,-0.0134277,0.0283813,0.0479126
5,4,0.0247192,0.0247192,0.09552,0.0396729,0.0350952,0.0326538,0.0195312,0.0213623,-0.00244141,0.0158691,-0.0308228,0.0476074,0.0274658
6,0,0.0357056,0.0436401,0.0512695,0.0521851,0.0231934,0.0250244,0.0241089,0.00701904,0.0137329,-0.00244141,-0.0375366,0.0286865,0.0683594
6,1,0.020752,0.0314331,0.0628662,0.0418091,0.0259399,0.03479,0.0344849,0.00549316,0.0149536,0.0134277,-0.0204468,0.0210571,0.0439453
6,2,0.0317383,0.0387573,0.065918,0.0390625,0.0323486,0.0582886,0.0112915,0.00793457,0.0463867,0.0161743,-0.0335693,0.0704956,0.0350952
6,3,0.00457764,-0.0292969,0.0189209,0.0387573,0.0131226,0.0161743,0.0238037,-0.00396729,0.00640869,0.012207,-0.020752,0.0314331,0.0363159
6,4,0.0527954,0.0192261,0.0231934,0.0430298,0.0250244,0.0286865,0.0137329,0.0238037,0.0302124,0.00427246,-0.0259399,0.0292969,0.0396729
7,0,0.027771,0.0234985,0.0131226,0.0485229,0.0247192,0.0408936,0.0161743,0.00976562,-0.00640869,0.0198364,-0.0262451,0.0427246,0.0299072
7,1,0.0195312,0.0292969,0.0241089,0.0485229,0.0338745,0.0283813,0.0534058,0.0183105,0.0177002,0.0534058,-0.015564,0.0308228,0.0238037
7,2,0.0357056,0.032959,-0.0012207,0.0296021,0.0234985,0.0137329,0.017395,0.0201416,0.0146484,0.0302124,-0.0552368,0.0280762,0.0518799
7,3,0.027771,0.0222778,-0.00183105,0.0424194,0.0720215,0.0167847,0.0128174,0.00457764,0.00823975,0.0216675,-0.0622559,0.0143433,0.0268555
7,4,0.0299072,0.0183105,0.00610352,0.027771,0.00915527,0.0299072,0.0112915,-0.039978,0.022583,0.0088501,-0.0250244,0.0335693,0.0363159
8,0,0.0283813,-0.0292969,0.0253296,0.0363159,-0.0216675,0.027771,0.00976562,0.0524902,0.0283813,0.00701904,-0.0180054,0.0238037,0.0549316
8,1,0.0170898,0.0292969,0.0256348,0.0457764,0.0402832,0.0302124,0.0201416,0.0161743,0.00946045,0.0222778,-0.0164795,0.0238037,0.0234985
8,2,0.0274658,0.0314331,0.0546265,0.032959,0.0335693,0.0610352,0.00823975,0.0274658,0.0149536,0.0112915,-0.0302124,0.0189209,0.0372314
8,3,0.0387573,0.0247192,0.0302124,0.0479126,0.0408936,0.0244141,0.0323486,0.0216675,0.0180054,0.0442505,-0.0198364,0.0253296,0.0405884
8,4,0.0152588,0.0244141,0.0448608,0.0323486,0.0158691,0.0280762,0.0241089,0.0152588,0.0119019,0.0231934,-0.0222778,0.022583,0.0393677
9,0,0.0552368,0.0140381,0.0363159,-0.020752,0.0271606,0.0323486,0.0280762,0.0302124,0.0195312,0.0189209,-0.0799561,0.0262451,0.0253296
9,1,-0.0305176,0.0213623,0.0515747,0.0430298,0.0265503,0.0283813,0.027771,0.00488281,0.0204468,0.0250244,-0.0323486,0.020752,0.0384521
9,2,0.0167847,0.0738525,0.0579834,0.0314331,-0.0219727,0.057373,0.0134277,0.0192261,0.0134277,0.0286865,-0.0228882,0.0283813,0.0311279
9,3,0.0177002,0.0234985,0.0628662,0.0396729,0.0405884,0.0204468,0.0314331,0.0387573,-0.0494385,0.0158691,-0.0299072,0.0408936,0.0149536
9,4,0.0323486,0.0360107,0.0598145,0.0363159,0.0228882,0.0219727,0.00488281,0.00579834,0.00671387,-0.00488281,-0.0289917,0.0271606,0.0427246
10,0,0.022583,0.0146484,0.0427246,0.0274658,0.0259399,0.0268555,0.0253296,0.00915527,0.072937,0.0140381,-0.0289917,0.00518799,0.0234985
10,1,0.0088501,0.0280762,0.0527954,0.0292969,0.0286865,0.0338745,0.0210571,0.0250244,0.0170898,0.00366211,-0.022583,0.0228882,0.0793457
10,2,0.022583,0.0271606,0.0405884,0.0430298,0.0320435,0.0402832,0.0354004,0.00579834,-0.0164795,0.0247192,-0.00823975,0.0634766,0.00915527
10,3,0.0222778,0.0387573,0.0286865,0.0445557,0.0723267,0.0369263,0.0247192,0.0418091,-0.0137329,0.0326538,-0.0308228,0.017395,0.0271606
10,4,0.0115967,0.0332642,0.0323486,0.043335,0.0332642,0.0259399,0.0149536,0.0189209,0.0180054,0.0125122,-0.0228882,0.0180054,0.0363159
11,0,0.0283813,0.0198364,0.0170898,-0.00244141,0.0259399,0.0280762,0.0265503,0.0128174,0.00610352,-0.00244141,-0.0292969,0.00793457,0.0369263
11,1,0.0262451,0.0369263,0.0128174,0.0360107,0.0622559,0.010376,0.0299072,0.0195312,0.0354004,0.0106812,-0.0183105,0.000305176,0.0292969
11,2,0.0198364,0.0375366,0.00244141,0.0283813,0.0302124,0.0210571,0.0241089,0.00427246,0.0100708,0.0189209,-0.0112915,0.0186157,0.0231934
11,3,-0.0192261,0.0265503,-0.00610352,0.00396729,0.0305176,0.0204468,-0.0213623,0.00976562,0.0119019,0.0222778,-0.0244141,0.0292969,0.0186157
11,4,0.0338745,0.0271606,0.0149536,0.0204468,0.038147,0.0268555,0.0177002,0.0488281,0.0100708,0.0222778,-0.0479126,0.00915527,0.0296021
12,0,-0.0234985,0.0338745,-0.00183105,0.0292969,0.0213623,0.0332642,0.0296021,0.0247192,0.0271606,0.0317383,-0.00610352,0.00946045,0.0268555
12,1,0.0341797,0.0167847,0.00213623,0.0305176,0.0479126,0.0192261,0.0268555,0.0366211,0.0128174,0.0106812,-0.0247192,0.0100708,0.0177002
12,2,0.0259399,0.0274658,0.0189209,0.0195312,0.0311279,0.0274658,0.0219727,0.0250244,0.00915527,0.0109863,-0.0256348,0.0012207,0.00671387
12,3,0.0262451,0.0283813,0.0296021,0.00732422,0.0402832,0.038147,0.0143433,0.0268555,-0.0384521,0.0354004,-0.0112915,0.0201416,0.0280762
12,4,0.0228882,0.0231934,0.00488281,0.0283813,0.0314331,0.0421143,0.0296021,0.0137329,0.00823975,0.0213623,-0.0308228,0.0177002,0.0418091
13,0,0.0210571,0.0866699,0.0250244,0.0289917,-0.0231934,0.0253296,0.0210571,0.0628662,0.0262451,0.0198364,-0.0244141,0.00366211,0.0262451
13,1,0.0479126,0.0192261,0.0466919,0.0231934,0.0396729,0.0372314,0.0183105,0.0296021,0.0158691,0.0158691,-0.0234985,0.0268555,0.0354004
13,2,0.039978,0.0253296,0.0744629,0.0445557,0.0350952,0.0360107,0.0198364,0.0183105,0.0143433,0.0189209,-0.0180054,0.012207,0.0222778
13,3,0.0180054,0.010376,0.0747681,0.0424194,0.0238037,0.0363159,0.0369263,-0.00274658,0.012207,0.0146484,0.0192261,0.0167847,0.0289917
13,4,0.0112915,-0.0183105,0.0494385,0.0167847,0.03479,0.0262451,0.065918,0.0271606,0.00183105,0.0241089,-0.015564,0.038147,0.0302124
14,0,0.0180054,0.0152588,0.050354,0.0369263,0.0311279,0.0161743,0.0286865,0.0146484,0.0100708,0.0286865,-0.020752,0.0201416,-0.0274658
14,1,0.0128174,0.0219727,0.0283813,0.0286865,0.020752,0.0253296,0.0332642,-0.00579834,0.0259399,0.017395,-0.0161743,-0.0317383,0.0271606
14,2,0.017395,0.0158691,0.0479126,0.0405884,0.0296021,0.0753784,0.0112915,0.0204468,0.0213623,-0.00518799,-0.0289917,0.010376,0.0350952
14,3,0.0317383,-0.0320435,0.0305176,0.0286865,0.0369263,0.0134277,0.0250244,0.055542,0.0167847,0.0164795,-0.0268555,0.0408936,0.0283813
14,4,0.017395,-0.000610352,0.0164795,0.0482178,0.0265503,0.032959,0.0323486,0.0146484,0.0161743,0.0210571,-0.0268555,0.017395,0.0299072
15,0,0.022583,0.0198364,-0.0241089,0.078125,0.0323486,0.0454712,0.0299072,0.0335693,0.0137329,0.00457764,-0.0177002,0.0189209,0.0262451
15,1,0.0195312,0.0143433,0.0125122,0.0335693,0.0286865,0.0363159,0.00305176,0.0164795,0.0137329,0.0204468,-0.0213623,0.0119019,0.0241089
15,2,0.0326538,0.0296021,-0.0119019,0.0436401,0.0256348,0.0411987,0.0177002,0.0418091,0.0238037,0.0335693,-0.0518799,0.0137329,0.0238037
15,3,0.00793457,0.015564,-0.0189209,0.00946045,0.0274658,0.0256348,0.0250244,0.0219727,0.00488281,0.0177002,-0.0201416,0.00701904,0.0231934
15,4,0.00946045,0.0256348,-0.0167847,0.0201416,0.0152588,0.0357056,0.0247192,0.0408936,0.0170898,0.0158691,-0.020752,0.0128174,0.0366211
16,0,0.0662231,-0.00183105,-0.00488281,0.0250244,0.0320435,0.0180054,0.0183105,0.00915527,-0.00305176,0.0256348,-0.0189209,0.0149536,0.0183105
16,1,0.0131226,0.0180054,0.0445557,0.0268555,0.0262451,0.0375366,0.0674438,0.0186157,0.0149536,0.0152588,-0.0241089,0.00671387,0.0204468
16,2,0.020752,0.010376,0.00518799,0.0265503,0.0228882,0.0308228,0.0115967,0.0314331,0.0128174,0.00518799,-0.00854492,0.0189209,0.000610352
16,3,0.0149536,0.0274658,-0.0482178,0.00915527,0.0299072,-0.0146484,0.022583,0.0296021,0.0466919,0.00823975,-0.0119019,0.0588989,0.0167847
16,4,0.0262451,0.050354,0.0125122,0.0189209,0.0305176,0.0228882,0.0350952,0.0146484,0.0106812,0.0161743,-0.0186157,-0.0112915,0.0427246
17,0,0.0283813,0.00610352,0.0192261,0.0283813,0.00671387,0.00854492,0.038147,0.0289917,-0.0479126,0.0253296,-0.0350952,0.0628662,0.0244141
17,1,-0.0161743,0.0100708,0.0466919,0.043335,0.038147,0.0332642,0.0421143,0.0201416,0.0283813,0.0436401,0.0112915,0.0180054,0.0140381
17,2,0.0125122,0.0128174,0.0756836,0.0253296,0.0372314,0.0332642,0.0292969,0.00762939,-0.0238037,0.0283813,-0.00640869,0.0271606,0.0149536
17,3,0.00457764,0.00915527,0.0759888,0.032959,0.0335693,0.0350952,0.0402832,0.00671387,0.0195312,0.0274658,-0.00427246,0.0158691,0.0592041
17,4,0.0524902,-0.0128174,0.0396729,0.00518799,0.0183105,0.0296021,0.0259399,0.0296021,0.0198364,0.0177002,-0.0253296,0.0109863,0.0344849
18,0,0.00976562,0.0280762,0.0369263,0.0393677,0.0262451,0.0262451,0.038147,0.00518799,0.0537109,0.0247192,-0.0119019,0.0289917,0.0125122
18,1,0.0271606,0.00244141,0.0149536,0.0189209,0.0338745,0.0683594,0.0366211,0.0250244,-0.00762939,0.0256348,-0.0393677,0.0408936,0.00305176
18,2,0.0204468,0.0283813,0.0250244,0.0430298,0.0909424,0.0408936,0.0387573,-0.0289917,0.0167847,0.0100708,-0.0134277,0.0256348,0.00274658
18,3,0.0198364,0.010376,0.0466919,0.0387573,0.0311279,0.0228882,0.0393677,0.0231934,0.0592041,0.0387573,-0.0119019,0.0152588,0.00427246
18,4,0.0222778,0.0167847,0.0137329,0.0292969,0.0161743,0.0222778,0.027771,0.0247192,0.0186157,0.0286865,0.017395,0.0210571,0.0137329
19,0,0.0259399,0.0143433,-0.0012207,0.0268555,0.020752,0.0317383,0.0320435,0.00732422,0.0204468,0.0408936,-0.0125122,0.0274658,0.00793457
19,1,0.00457764,0.0320435,-0.00671387,0.0418091,0.0384521,0.0421143,0.0405884,0.0338745,0.0350952,-0.0109863,-0.039978,-0.00518799,0.0378418
19,2,0.00915527,0.0222778,-0.0289917,0.0241089,0.0262451,0.0338745,0.0305176,0.0112915,0.017395,0.0820923,-0.0314331,0.00915527,0.0439453
19,3,0.015564,0.0088501,-0.00701904,0.0579834,0.0387573,0.0314331,0.085144,0.0161743,0.0213623,0.0668335,-0.00915527,0.0180054,0.0384521
19,4,0.0204468,0.0494385,-0.00335693,0.0210571,0.020752,0.0335693,0.0408936,0.0390625,0.0158691,0.0253296,-0.0216675,-0.010376,0.012207
20,0,0.0152588,0.0146484,-0.00946045,0.0125122,0.0250244,-0.0119019,0.0283813,0.0314331,0.00946045,0.0195312,-0.0125122,0.0143433,0.0289917
20,1,0.0195312,0.0259399,-0.0115967,0.0238037,0.0088501,0.0543213,0.0457764,0.0299072,0.020752,0.0213623,-0.0152588,0.0167847,0.0167847
20,2,0.0088501,0.0231934,-0.0228882,0.0286865,0.0299072,0.039978,0.0390625,0.0140381,0.0161743,0.0341797,-0.0253296,0.0158691,-0.00518799
20,3,0.0375366,0.0231934,0.0109863,0.0488281,0.0292969,0.0518799,0.0192261,0.0326538,0.0344849,0.0366211,-0.0234985,0.0234985,0.0213623
20,4,0.010376,-0.0357056,0.0320435,0.0189209,0.020752,0.0338745,0.0393677,0.020752,0.0195312,0.0140381,-0.0100708,-0.00457764,0.0161743
21,0,0.0231934,0.00823975,0.017395,0.0189209,0.085144,0.039978,0.0405884,0.0396729,0.0137329,0.0119019,-0.0442505,0.0088501,0.0250244
21,1,0.0234985,0.0308228,0.010376,0.00457764,0.03479,0.0268555,0.0396729,0.0341797,0.032959,0.0262451,-0.0152588,0.00396729,0.017395
21,2,0.0112915,0.00946045,0.078125,0.0308228,0.0234985,0.0302124,0.0491333,0.0201416,0.00915527,0.0283813,-0.0186157,0.00152588,-0.00701904
21,3,0.0177002,0.0912476,0.0750732,0.032959,-0.0305176,0.0415039,0.0262451,-0.0164795,0.00793457,0.022583,-0.0186157,0.0131226,0.0274658
21,4,-0.00427246,0.0143433,0.015564,0.0360107,0.0326538,0.0100708,0.0579834,0.0140381,0.0213623,0.0271606,-0.0201416,0.0161743,0.0189209
22,0,0.0167847,0.022583,0.0375366,0.0234985,0.0253296,0.0189209,0.0286865,0.0317383,0.0424194,0.0210571,-0.0149536,0.0204468,0.0177002
22,1,0.0378418,0.00427246,0.0387573,0.0195312,0.017395,0.0292969,0.0402832,0.0335693,0.0167847,0.00732422,-0.020752,0.010376,-0.0341797
22,2,0.00946045,-0.00183105,0.00366211,0.00854492,0.00915527,0.0463867,0.0427246,0.0180054,0.0256348,0.0228882,-0.0112915,0.00701904,0.0143433
22,3,0.0515747,0.0140381,0.0222778,0.020752,0.017395,0.015564,0.0415039,0.027771,0.0314331,0.0137329,-0.0427246,0.0115967,0.0088501
22,4,0.0210571,-0.0213623,0.000305176,0.0247192,0.0152588,0.0274658,0.0390625,0.0222778,0.027771,0.017395,-0.00335693,0.0289917,0.0149536
23,0,0.0149536,0.00427246,0.0170898,0.032959,0.020752,0.0296021,0.0238037,0.0234985,0.0250244,0,-0.0183105,0.0143433,0.0799561
23,1,0.0216675,0.0119019,0.00152588,0.0296021,0.0274658,0.0134277,0.0402832,0.0271606,0.032959,0.0357056,-0.020752,0.0250244,0.0201416
23,2,0.0186157,0.00823975,0.00640869,0.00946045,0.0134277,0.0317383,0.0152588,0.0546265,0.0167847,0.0311279,-0.0299072,0.0161743,0.0280762
23,3,0.00579834,0.00793457,-0.0473022,0.0231934,0.0231934,0.0335693,0.0308228,0.0170898,0.0286865,0.0195312,-0.0140381,0.00335693,-0.0289917
23,4,0.0265503,0.0201416,0.000915527,0.0228882,0.0326538,0.0299072,0.0402832,0.0244141,0.00579834,0.0292969,-0.0259399,0.0259399,0.0292969
24,0,0.00946045,0.0137329,-0.0244141,0.0302124,0.0222778,0.0216675,0.0439453,0.0256348,0.0189209,0.0344849,-0.00915527,0.0213623,0.0167847
24,1,0.0274658,0.0299072,-0.03479,0.0238037,0.0189209,0.0308228,0.0204468,0.0338745,0.0418091,0.0131226,-0.0234985,-0.00213623,0.00732422
24,2,0.0152588,0.00579834,-0.0128174,0.0262451,0.0299072,0.0314331,0.0704956,0.0250244,0.0302124,0.0378418,-0.0241089,-0.0125122,0.0183105
24,3,0.0143433,0.0259399,0.00274658,0.0189209,0.0210571,0.0512695,0.0317383,0.00762939,-0.00976562,0.022583,-0.0253296,-0.0323486,0.0149536
24,4,0.0234985,0.00640869,0.0308228,0.0149536,0.0244141,0.0314331,0.0292969,0.0311279,0.0234985,0.0247192,-0.0238037,0.0244141,0.0125122
25,0,0.0259399,0.015564,0.0183105,0.0326538,0.0247192,0.0375366,0.032959,0.0537109,0.0326538,0.0262451,0.00457764,0.0299072,0.0192261
25,1,0.0332642,0.0204468,0.0323486,0.0231934,0.0250244,0.0354004,0.0183105,0.0430298,0.020752,0.022583,-0.0167847,0.00976562,0.0112915
25,2,0.0146484,0.0125122,0.0411987,0.0286865,0.015564,0.0299072,0.0314331,0.0170898,0.0259399,0.0234985,-0.0604248,0.0106812,0.0158691
25,3,0.0213623,0.0204468,0.0588989,0.0219727,0.0250244,0.0418091,0.0360107,0.027771,0.027771,0.0268555,-0.0234985,-0.00579834,0.00762939
25,4,-0.00549316,0.0228882,0.0439453,0.0350952,0.0180054,0.015564,0.0357056,0.0558472,0.0250244,0.0143433,-0.0335693,0.00946045,0.0244141
26,0,0.0323486,0.0183105,0.0531006,0.0222778,0.0305176,0.0164795,0.0253296,0.0198364,0.0427246,0.00274658,-0.020752,-0.0289917,0.0164795
26,1,0.00335693,-0.000915527,0.0396729,0.0112915,0.0149536,0.0149536,0.0186157,0.0268555,0.00762939,0.0231934,-0.0192261,0.0296021,0.0601196
26,2,0.0292969,0.0195312,0.020752,0.015564,0.0253296,0.0985718,0.0299072,0.0384521,-0.032959,0.0418091,-0.0192261,0.0558472,-0.00823975
26,3,0.0231934,0.00976562,0.0506592,0.0289917,0.0408936,0.0268555,0.0418091,0.0494385,0.0180054,0.0244141,-0.0521851,0.0311279,0.0164795
26,4,0.0344849,-0.00823975,0.00610352,0.0668335,0.0390625,0.0292969,-0.0186157,0.0234985,0.0195312,0.00396729,-0.0247192,0.0137329,0.012207
27,0,0.0384521,0.0152588,0,0.0466919,0.0308228,0.0256348,0.038147,0.0137329,0.0216675,0.00762939,-0.0231934,0.015564,0.0125122
27,1,0.0213623,0.0128174,-0.0360107,0.0320435,0.0198364,-0.0469971,0.0271606,0.0265503,0.020752,-0.00823975,-0.0286865,0.043335,0.0302124
27,2,0.00854492,0.0350952,-0.0234985,0.0250244,0.0244141,0.0308228,0.0332642,0.0405884,0.0201416,0.00610352,-0.0268555,-0.0012207,0.010376
27,3,0.0137329,0.015564,-0.0250244,0.0231934,0.0222778,0.0131226,0.0198364,0.0253296,-0.0177002,0.0137329,-0.0262451,0.0610352,0.0146484
27,4,0.00732422,0.0210571,-0.027771,0.00396729,0.0213623,0.0839233,0.0219727,0.0421143,0.0491333,0.0088501,-0.027771,0.0256348,0.022583
28,0,0.0170898,0.0238037,-0.0201416,0.0189209,-0.00457764,0.0192261,0.0247192,0.0210571,-0.0341797,0.00762939,-0.0219727,-0.0402832,0.0335693
28,1,0.0210571,0.0259399,-0.0332642,0.0146484,0.0305176,0.012207,0.0296021,0.0338745,-0.00274658,0.0128174,-0.0231934,-0.00305176,0.0161743
28,2,0.0195312,0.0271606,0,0.0088501,0.0192261,0.0427246,0.0262451,0.0231934,0.0177002,0.0204468,0.0119019,0.0247192,0.00976562
28,3,0.0292969,0.0335693,0.0125122,0.00762939,0.017395,0.0262451,0.0289917,0.0372314,0.0253296,-0.0201416,-0.0210571,0.0192261,0.0204468
28,4,0.0390625,0.0198364,0.0442505,-0.00732422,-0.0158691,0.0180054,0.0338745,0.0308228,0.022583,0.0125122,-0.0265503,0.0311279,0.015564
29,0,0.0332642,0.0283813,0.00671387,0.0134277,0.0198364,0.0158691,0.0137329,0.0119019,0.0201416,-0.00457764,-0.0186157,0.0241089,0.0192261
29,1,-0.00579834,0.0137329,0.057373,0.00579834,0.06073,0.0128174,-0.00152588,0.0454712,0.03479,0.0119019,-0.0204468,0.0405884,0.0167847
29,2,0.0860596,0.0302124,0.0402832,0.0424194,0.0247192,0.010376,0.0363159,0.022583,0.0299072,0.0314331,-0.0375366,0.0247192,0.0244141
29,3,0.0436401,0.0302124,0.0387573,-0.00793457,0.0180054,0.0442505,0.0323486,0.0311279,0.0100708,0.038147,-0.0250244,0.0131226,0.00976562
29,4,0.0186157,0.0253296,0.0674438,0.0262451,0.00274658,0.0274658,0.0234985,0.027771,0.0180054,0.022583,-0.00732422,0.0167847,0.0112915
30,0,0.0317383,0.0115967,0.0680542,0.039978,0.0234985,0.0204468,0.0305176,0.0195312,0.0253296,-0.0241089,-0.0323486,0.0219727,0.0778198
30,1,0.0283813,0.0241089,0.0637817,0.0219727,0.0259399,-0.00366211,0.0131226,0.0210571,0.0161743,0.0332642,-0.0360107,0.0140381,0.0125122
30,2,0.0213623,0.0100708,0.0140381,0.032959,0.000610352,0.0448608,0.020752,0.0299072,0.0259399,0.0088501,-0.0149536,0.0143433,0.0305176
30,3,0.00915527,-0.0415039,0.0183105,0.0442505,0.0738525,0.0244141,0.0372314,0.0250244,0.0216675,0.00305176,-0.0247192,0.00976562,0.0271606
30,4,0.0189209,0.0274658,0.00732422,0.0152588,0.0228882,0.0112915,0.0210571,0.0222778,0.0189209,0.0411987,-0.0219727,0.0186157,0.0134277
31,0,0.0289917,0.022583,0.0210571,0.0143433,0.00579834,0.0259399,0.0332642,0.0466919,0.0161743,0.0753784,-0.0314331,0.0234985,-0.0274658
31,1,0.00213623,0.0115967,-0.00305176,0.0112915,0.0296021,0.0158691,0.0387573,0.0411987,0.0448608,0.0363159,-0.0396729,0.0146484,0.027771
31,2,0.0204468,0.0546265,-0.00274658,0.0143433,0.0213623,0.00854492,0.0335693,0.0323486,0.0228882,0.0457764,-0.0302124,0.0198364,0.00823975
31,3,-0.0106812,0.032959,-0.0265503,-0.0100708,0.0341797,0.0195312,0.0921631,0.0170898,0.0354004,-0.0012207,-0.0186157,0.0286865,0.0274658
31,4,0.0234985,-0.0338745,-0.0305176,-0.010376,0.0302124,0.0256348,0.0445557,0.0265503,0.03479,0.0341797,-0.0311279,0.0164795,0.0314331
32,0,0.0186157,0.0332642,-0.0186157,0.00915527,0.0265503,0.0256348,0.0292969,0.0131226,0.0305176,0.0405884,-0.0369263,0.0219727,0.0088501
32,1,0.0244141,0.00762939,-0.0128174,0.0106812,0.0302124,-0.00427246,0.0283813,0.0402832,0.0375366,0.0531006,-0.0137329,0.015564,0.0204468
32,2,0.0134277,0.0183105,0.0128174,-0.00366211,0.0210571,0.0186157,0.0140381,0.0149536,0.0314331,0.0595093,-0.0476074,0.0231934,0.00946045
32,3,0.050354,0.0317383,0,0.0341797,0.0134277,0.00518799,0.0363159,0.0320435,0.00183105,0.0595093,-0.0320435,0.0299072,0.0195312
32,4,0.0454712,0.0286865,0.0469971,0.00152588,0.0164795,0.0125122,-0.00305176,0.0140381,0.0292969,0.0830078,-0.0421143,0.0241089,0.0204468
33,0,0.0228882,0.0360107,0.0219727,0.00549316,0.0244141,0.0146484,0.017395,0.0280762,0.0445557,0.0881958,0.00579834,0.0180054,0.00976562
33,1,0.0250244,0.0213623,0.0192261,0.0137329,0.0152588,0.0134277,0.0238037,0.0283813,0.065918,0.0695801,-0.0308228,-0.00396729,0.0183105
33,2,0.0299072,0.0286865,0.0323486,0.010376,0.0238037,0.0140381,0.0143433,0.00976562,0.0396729,0.0796509,-0.0335693,0.0115967,0.0161743
33,3,0.0274658,0.0296021,0.0601196,-0.00671387,0.0262451,0.0280762,-0.0262451,0.0302124,0.0241089,0.0680542,-0.0372314,0.0268555,0.0259399
33,4,0.032959,0.027771,0.0631714,0.0177002,0.0167847,0.000915527,0.0231934,0.032959,0.038147,0.110474,-0.038147,0.0134277,-0.0442505
34,0,0.0256348,0.0170898,0.0622559,0.022583,0.0302124,0.0180054,0.0244141,0.0430298,0.0390625,0.0769043,-0.0357056,0.0262451,0.0317383
34,1,0.0256348,0.0317383,0.0769043,0.022583,0.010376,-0.0170898,0.0253296,0.0357056,0.0640869,0.071106,-0.0192261,0.0640869,0.0292969
34,2,0.0283813,0.0262451,0.0598145,0.0256348,0.0192261,0.0320435,0.0292969,-0.0219727,0.050354,0.0680542,-0.039978,0.0210571,0.0158691
34,3,0.0274658,0.0216675,0.0326538,0.0259399,0.00976562,0.00427246,0.0259399,0.0384521,0.0439453,0.0512695,-0.0186157,0.0363159,0.0253296
34,4,0.0250244,0.017395,0.00305176,0.0152588,0.0265503,0.00854492,0.0149536,0.0280762,0.0436401,0.050354,0.00640869,0.0210571,0.0231934
35,0,0.0219727,0.0170898,0.000305176,0.0283813,0.0253296,0.0149536,0.0119019,0.0372314,0.108032,0.0469971,-0.0161743,0.00762939,0.0418091
35,1,0.0201416,0.0286865,-0.0164795,0.0158691,-0.00823975,0.0476074,0.0289917,0.0213623,0.0491333,0.0491333,-0.0402832,0.0189209,0.0222778
35,2,0.0192261,0.0198364,0.00152588,0.0537109,0.0180054,0.0119019,-0.0265503,0.0192261,0.0396729,0.0439453,-0.032959,0.0265503,0.0170898
35,3,0.022583,0.0222778,0.00305176,0.00915527,0.00213623,0.00823975,0.0231934,0.0216675,0.0354004,0.0415039,-0.0259399,0.0250244,0.0143433
35,4,0.038147,0.0280762,-0.0411987,0.00976562,-0.000915527,-0.032959,0.00976562,0.0375366,0.039978,0.0564575,-0.0314331,0.0442505,0.0262451
36,0,0.0146484,0.0326538,-0.0396729,0.0180054,0.0247192,0.00946045,-0.0119019,-0.0112915,0.0378418,0.0369263,-0.00549316,0.0231934,0.0170898
36,1,0.0283813,0.0744629,-0.0250244,0.0158691,0.0338745,0.00854492,0.0268555,0.0271606,0.0558472,0.0250244,-0.0350952,0.0366211,0.0256348
36,2,0.0311279,0.0189209,-0.0115967,0,0.0335693,0.0317383,0.027771,0.022583,0.0350952,0.0317383,-0.00396729,0.0302124,0.0265503
36,3,0.032959,0.0289917,0.0125122,-0.00488281,0.012207,0.00366211,0.0112915,0.0204468,0.0311279,0.0372314,-0.0299072,0.020752,0.0146484
36,4,0.0323486,0.0268555,0.0238037,0.0115967,0.0143433,0.0274658,0.0119019,0.0192261,0.032959,-0.0183105,-0.0311279,0.0296021,0.00244141
37,0,0.0268555,0.0250244,0.0631714,0.000915527,0.00640869,0.0506592,0.0100708,0.0183105,0.0302124,0.0241089,-0.0436401,0.050354,0.0436401
37,1,0.0588989,0.0183105,0.0421143,-0.0244141,0.0128174,0.0177002,0.0424194,0.0189209,0.0341797,0.0497437,-0.0250244,0.0326538,0.0341797
37,2,0.0299072,0.078125,0.0369263,0.0152588,-0.0387573,0.0219727,0.0308228,0.0283813,0.0369263,0.00701904,-0.038147,0.0244141,0.0473022
37,3,0.0375366,0.0418091,0.0750732,0.00579834,-0.00335693,-0.0222778,0.0180054,0.03479,0.0454712,0.0274658,-0.0387573,-0.0280762,0.0311279
37,4,0.0311279,0.0372314,0.0753784,0.00396729,0.0149536,0.0149536,0.0149536,0.0271606,0.0308228,-0.0106812,-0.0332642,0.0259399,0.0216675
38,0,0.0427246,0.0341797,0.101624,0.0241089,0.00549316,0.00976562,0.017395,0.0308228,0.0210571,0.0271606,-0.0332642,0.0253296,0.0161743
38,1,0.0363159,0.0363159,0.119019,0.0189209,0.0137329,0.078125,0.0271606,0.0219727,0.038147,0.010376,-0.0378418,0.0125122,0.0228882
38,2,0.0354004,0.0720215,0.0372314,0.0137329,0.00946045,0.00640869,0.0305176,0.0131226,0.0247192,0.0198364,-0.0296021,0.00946045,0.0311279
38,3,0.0518799,0.0341797,0.0332642,0.00488281,0.00579834,0.0216675,0.0183105,0.0128174,0.0247192,0.0283813,-0.0292969,0.0143433,0.0183105
38,4,0.0247192,-0.00946045,0.0216675,0.0250244,0.0588989,0.0161743,0.0143433,0.0210571,0.0283813,0.00274658,-0.0320435,0.0216675,0.0253296
39,0,0.0317383,0.0167847,0.0317383,-0.00183105,0.0167847,0.0201416,0.0158691,0.0189209,0.00671387,0.0167847,-0.027771,0.0372314,0.03479
39,1,0.032959,-0.0396729,0.00946045,0.00946045,0.0195312,-0.00671387,0.0189209,0.0750732,0.0296021,0.012207,-0.022583,0.0317383,0.032959
39,2,0.0442505,0.0170898,-0.012207,0.010376,0.0149536,0.0238037,0.0143433,0.020752,0.0292969,0.027771,-0.0332642,0.0692749,0.0128174
39,3,0.0320435,0.0238037,-0.0152588,0.000915527,0.00946045,0.027771,0.0180054,0.0228882,0.0100708,0.0299072,-0.03479,0.0164795,-0.0167847
39,4,0.0305176,0.0384521,-0.0210571,0.00610352,0.0161743,0.0128174,0.0231934,0.038147,0.0192261,-0.0201416,-0.0308228,0.0250244,0.0772095
40,0,0.0411987,0.0289917,0.00488281,0.0180054,0.00732422,0.0183105,0.00732422,0.010376,0.039978,0.0192261,-0.0357056,0.0231934,0.0445557
40,1,-0.0323486,0.0494385,-0.0219727,0.0436401,0.017395,0.0344849,0.0204468,0.0189209,0.0283813,0.0186157,-0.0222778,0.0320435,0.0241089
40,2,0.0152588,0.0363159,0.00488281,0.00152588,0.00183105,0.0216675,0.0234985,-0.0274658,0.0390625,0.0115967,-0.0210571,0.00793457,0.0274658
40,3,0.0177002,0.039978,0.0466919,0.00946045,0.00915527,0.020752,0.00915527,0.0234985,0.027771,0.012207,-0.0317383,0.0183105,0.0311279
40,4,0.0320435,0.0161743,0.0567627,0.0213623,0.00457764,-0.0540161,0.0268555,0.0274658,0.0631714,0.0167847,-0.0259399,0.065918,0.0296021
41,0,0.0302124,0.0424194,-0.0427246,0.00183105,0.0170898,0.00335693,0.015564,0.0201416,0.0259399,0.0357056,-0.0561523,0.0286865,0.0186157
41,1,0.0274658,0.0198364,0.0195312,0.0158691,0,0.085144,0.0177002,0.0247192,0.0167847,0.00396729,-0.0326538,0.0234985,0.0192261
41,2,0.0494385,0.0299072,0.0424194,0.022583,0.0134277,0.00152588,0.0164795,0.0186157,0.0177002,0.0231934,-0.0311279,0.0262451,0.0167847
41,3,0.0222778,0.0424194,0.0485229,0.0817871,0.0119019,0.0170898,0.0665283,0.0335693,0.0262451,0.0790405,-0.0332642,0.0341797,0.0469971
41,4,0.0241089,0.0311279,0.0674438,0.0201416,0.0192261,0.0146484,0.0170898,0.0268555,0.0131226,0.0137329,-0.0338745,0.0152588,0.0241089
42,0,0.0195312,0.0335693,0.0662231,0.0323486,0.0088501,0.0180054,0.0161743,0.0231934,0.0283813,0.00823975,-0.0265503,0.0390625,0.065918
42,1,0.0115967,0.0158691,0.0491333,0.0497437,0.0161743,0.0195312,0.0164795,0.0213623,0.0408936,0.027771,-0.0323486,0.0924683,0.012207
42,2,0.0350952,-0.00701904,0.0540161,0.0210571,0.00854492,0.0177002,0.000915527,0.0180054,0.0210571,0.0152588,-0.0375366,0.0357056,0.0341797
42,3,0.0317383,0.0314331,0.0512695,0.0360107,0.0296021,0.0137329,0.0112915,0.0210571,0.0317383,0.0201416,-0.0372314,0.0299072,0.0274658
42,4,-0.0167847,0.0210571,0.0515747,0.0534058,0.0234985,0.0311279,0.0183105,0.00427246,0.0161743,0.0134277,-0.0106812,0.0213623,0.0262451
43,0,0.027771,0.0192261,0.0320435,0.032959,0.0323486,0.0137329,0.010376,0.0274658,0.0106812,0.0204468,-0.0357056,0.0238037,0.0302124
43,1,0.0204468,0.0311279,0.043335,0.0274658,0.0170898,-0.0119019,0.0238037,0.022583,-0.0250244,0.0250244,-0.0320435,0.0436401,0.0283813
43,2,0.0283813,0.0402832,0.0100708,0.0271606,0.0228882,0.0146484,0.0137329,0.00427246,0.00488281,0.0231934,-0.0228882,0.0405884,0.0317383
43,3,0.022583,-0.0180054,0.00732422,0.0265503,0.027771,0.0262451,0.0109863,0.0189209,0.000610352,0.0134277,-0.0354004,0.0671387,0.0158691
43,4,0.032959,0.0497437,0.0234985,0.00823975,0.00701904,0.0302124,0.0265503,0.0271606,0.0186157,0.0204468,-0.0427246,0.0158691,0.0369263
44,0,0.0198364,0.0305176,0.00671387,0.0601196,0.0161743,0.0125122,0.0213623,0.0161743,0.0100708,0.0198364,-0.032959,0.0314331,0.0128174
44,1,0.0256348,0.0363159,0.0241089,0.0180054,0.0335693,0.0646973,0.0244141,0.0244141,0.0320435,0.0219727,-0.0360107,0.0387573,0.0360107
44,2,0.0415039,0.0320435,0.015564,0.017395,0.0292969,0.0177002,-0.0186157,0.00549316,0.00854492,0.0741577,-0.0292969,0.0238037,0.0427246
44,3,0.0396729,0.0314331,0.00305176,0.0158691,0.0256348,0.0283813,0.0219727,0.00488281,0.0265503,0.0222778,-0.0164795,0.0228882,0.0271606
44,4,0.0302124,0.0201416,-0.0216675,0.0198364,0.0234985,0.0231934,0.0274658,0.0201416,0.0161743,0.0222778,-0.0387573,0.0271606,0.0234985
45,0,0.0491333,0.0674438,0.0344849,0.0149536,0.0640869,0.0177002,0.0183105,0.0543213,0.0186157,0.0396729,-0.0396729,0.0250244,0.0360107
45,1,0.0256348,0.0265503,0.0180054,0.022583,0.0158691,0.0332642,0.0186157,0.0158691,0.0665283,0.0177002,-0.0296021,0.0726318,0.0262451
45,2,0.0234985,0.0323486,0.0564575,0.0189209,0.0170898,0.0143433,0.00457764,0.00793457,0.071106,0.0286865,-0.0445557,0.0787354,0.0427246
45,3,0.0683594,0.0286865,0.0772095,0.0497437,0.0296021,-0.00946045,0.0292969,0.0265503,-0.0271606,0.0137329,-0.0360107,-0.0369263,0.0180054
45,4,0.0204468,0.039978,0.137329,0.0320435,0.0283813,0.0292969,0.020752,0.0250244,0.0424194,0.0213623,-0.0302124,0.0680542,0.0115967
46,0,0.0338745,0.0378418,0.0668335,0.0317383,0.0286865,0.0137329,0.0247192,-0.0375366,0.0149536,0.0167847,-0.0244141,0.0201416,0.0344849
46,1,0.0216675,0.0259399,0.0302124,0.010376,0.0268555,0.0192261,0.0137329,0.0149536,0.022583,0.0134277,-0.0390625,0.0210571,-0.0289917
46,2,0.0350952,0.0436401,0.0445557,0.03479,0.0723267,0.0140381,0.0125122,0.012207,0.0219727,0.0216675,-0.0216675,0.0430298,0.0378418
46,3,0.0213623,0.0247192,0.0543213,0.0274658,0.022583,0.0131226,0.00396729,0.00427246,0.00915527,0.0161743,-0.0241089,0.0396729,0.0366211
46,4,0.0891113,0.0204468,0.0238037,0.0714111,0.00701904,0.015564,0.00762939,0.0256348,0.0317383,-0.00518799,-0.0213623,0.0195312,0.0418091
47,0,0.0109863,0.0375366,0.0524902,0.017395,0.027771,0.0161743,-0.0231934,0.0234985,0.0393677,0.0164795,-0.0228882,0.0354004,0.0311279
47,1,0.0769043,0.0268555,0.0216675,0.0170898,0.0317383,0.0219727,0.0268555,0.0128174,0.0100708,0.017395,-0.0335693,0.0234985,0.0292969
47,2,0.0296021,0.0143433,0.0131226,0.0302124,0.0518799,0.0369263,0.0195312,0.0350952,0.00701904,0.0143433,-0.0219727,0.0250244,0.0402832
47,3,0.0296021,0.00671387,0.00457764,0.0326538,0.0247192,0.0137329,-0.0109863,0.0250244,0.010376,-0.017395,-0.0424194,0.0250244,0.0302124
47,4,0.0350952,0.0442505,-0.00488281,0.0283813,0.0640869,0.0137329,0.00823975,0.0201416,0.0125122,0.0170898,-0.0219727,0.0222778,0.0384521
48,0,0.0265503,0.0317383,0.0204468,0.0177002,0.00793457,0.0875854,0.0283813,0.0314331,-0.0338745,0.0366211,-0.0262451,0.0271606,0.0405884
48,1,0.0219727,0.0262451,0.0146484,0.0265503,0.0396729,0.0259399,0.0271606,0.0177002,0.0238037,0.032959,-0.0317383,0.0332642,0.0320435
48,2,-0.0140381,0.0271606,0.0177002,0.0994873,0.0323486,0.0146484,0.0585938,0.0183105,0.0186157,0.0292969,-0.0286865,0.039978,-0.0256348
48,3,0.0402832,0.0299072,0.0228882,0.043335,0.0186157,0.0338745,0.0317383,0.0393677,0.00305176,0.0213623,-0.0289917,0.0296021,0.0439453
48,4,0.0170898,0.0408936,0.0494385,0.0469971,0.043335,0.0222778,0.0311279,0.0149536,0.00854492,0.0222778,-0.0366211,0.0250244,0.0543213
49,0,0.0302124,0.0259399,0.0582886,0.0311279,0.0238037,0.0146484,0.0137329,0.0115967,0.0326538,0.0186157,-0.0265503,0.0344849,0.0344849
49,1,0.0231934,0.0427246,0.0244141,0.0177002,0.0427246,0.0180054,0.0357056,0.0265503,0.0152588,0.0170898,-0.0335693,0.0198364,0.0228882
49,2,0.0241089,0.0778198,0.0479126,0.0299072,0.0286865,0.012207,0.0222778,0.000610352,0.00610352,0.017395,-0.0140381,0.0323486,0.0460815
49,3,0.0302124,0.0360107,0.0500488,0.0378418,0.022583,0.0299072,0.0396729,0.0204468,0.0146484,0.0106812,-0.0366211,0.078125,0.0222778
49,4,0.0369263,0.0106812,0.0787354,0.0289917,0.0387573,0.0183105,0.0247192,0.017395,0.0296021,0.015564,-0.0369263,0.0146484,0.0473022
50,0,0.0299072,0.0598145,0.0476074,0.0396729,0.0546265,0.0231934,0.0222778,0.0183105,0.010376,0.0137329,-0.0231934,0.0308228,0.0430298
50,1,0.0402832,0.0354004,0.0601196,0.0402832,0.0210571,0.00518799,0.022583,0.00549316,0.0109863,0.0228882,-0.0219727,0.0323486,0.0436401
50,2,0.0274658,0.0268555,0.0408936,0.0341797,0.0283813,0.0012207,0.0238037,0.0177002,0.0186157,0.0140381,-0.0314331,0.0308228,0.0485229
50,3,0.0216675,0.0109863,0.0378418,0.0714111,-0.00579834,0.0259399,0.015564,0.0283813,0.0234985,0.0192261,0.00701904,0.0289917,0.0302124
50,4,0.0247192,0.00427246,0.0460815,0.043335,0.0302124,0.0146484,0.0177002,0.0088501,-0.00610352,0.0186157,-0.0222778,0.0268555,0.0195312
51,0,0.0454712,0.0183105,0.0189209,0.045166,0.0299072,0.0299072,0.0228882,0.0115967,0.022583,0.0268555,-0.0271606,0.0265503,0.0534058
51,1,0.0146484,0.0170898,0.0308228,0.0354004,0.0357056,0.0299072,-0.000610352,0.0088501,0.0198364,-0.010376,-0.0357056,0.0204468,0.0469971
51,2,0.0244141,0.0311279,0.0299072,0.0448608,0.0280762,0.0149536,0.0344849,0.00976562,0.0170898,-0.0460815,-0.0421143,0.00976562,0.0149536
51,3,0.0354004,0.0274658,0,0.0405884,0.0256348,0.0292969,0.0308228,0.017395,0.0250244,0.0198364,0.0177002,0.0274658,0.0286865
51,4,0.0366211,0.0357056,-0.0653076,0.0384521,0.0198364,0.0234985,0.0238037,0.0170898,0.0259399,0.043335,-0.0149536,0.0280762,0.0201416
52,0,0.0292969,0.0140381,-0.00244141,0.0146484,0.0372314,0.0125122,0.0262451,0.0558472,0.00976562,0.0161743,-0.00640869,0.0549316,0.0341797
52,1,0.0146484,0.0262451,-0.000305176,0.0271606,0.0289917,0.0143433,0.0305176,0.0326538,0.0213623,0.022583,-0.027771,0.0811768,0.0393677
52,2,0.0222778,0.0354004,0.00793457,0.0146484,0.039978,0.0180054,0.0131226,-0.0161743,0.0119019,0.0527954,-0.0183105,0.0393677,0.0216675
52,3,0.0234985,0.03479,0.0698853,0.0228882,0.0302124,0.0134277,0.0286865,0.0271606,0.0134277,0.0216675,-0.0198364,0.0469971,0.0344849
52,4,0.0109863,0.0241089,0.0692749,0.0308228,0.0247192,-0.0140381,0.0338745,0.00915527,0.0210571,0.0222778,-0.0354004,0.0350952,0.0378418
53,0,0.0286865,0.0268555,0.0387573,-0.0112915,0.0299072,0.0143433,0.0479126,0.0146484,0.0234985,0.0253296,-0.0350952,0.0170898,0.0357056
53,1,0.0198364,0.00274658,0.0357056,0.0369263,0.0961304,0.0326538,0.032959,0.00793457,0.0219727,0.0228882,-0.00183105,0.00976562,0.0256348
53,2,0.0106812,0.020752,0.0378418,0.0497437,0.0308228,0.0152588,0.0369263,0.0256348,0.00793457,0.0363159,-0.0247192,0.0204468,0.0372314
53,3,0.0201416,0.015564,0.0546265,0.0524902,0.0418091,0.0317383,0.0253296,0.0445557,0.0268555,0.020752,-0.00427246,-0.00579834,0.0332642
53,4,0.0250244,0.0326538,0.062561,0.0387573,0.00671387,0.0283813,0.0262451,0.00701904,0.00762939,0.0250244,0.00366211,0.0286865,0.0375366
54,0,0.0158691,0.0106812,0.0592041,0.0338745,0.0302124,0.0283813,0.0140381,0.0231934,0.0186157,0.0326538,-0.0216675,0.0390625,0.0143433
54,1,0.00976562,0.0378418,0.0579834,0.0210571,0.0375366,0.0317383,0.0195312,0.00946045,0.0198364,0.0274658,-0.0186157,0.010376,0.0289917
54,2,0.0488281,0.0161743,0.0411987,0.0604248,0.0271606,0.0192261,0.0344849,0.0274658,0.0210571,0.0787354,-0.0180054,0.0402832,0.0271606
54,3,0.0164795,0.0152588,0.0460815,0.0366211,0.015564,0.0738525,0.00915527,0.0192261,0.022583,0.0152588,-0.0247192,0.0262451,0.043335
54,4,0.0640869,0.0344849,0.0369263,0.0848389,0.0219727,0.0244141,0.0418091,0.0271606,0.0195312,0.0216675,-0.0247192,0.0479126,0.0372314
55,0,0.0177002,0.0158691,-0.00701904,0.0488281,0.0299072,0.0195312,0.0271606,0.0170898,0.0140381,0.015564,-0.012207,0.0317383,0.0360107
55,1,0.0161743,0.0265503,0.0137329,0.0418091,0.0335693,-0.00732422,0.0305176,0.017395,-0.032959,0.0106812,-0.0311279,0.0363159,0.0335693
55,2,0.0241089,0.0366211,0.03479,0.0506592,0.0354004,0.0317383,0.0180054,0.00366211,0.0140381,0.03479,-0.0140381,0.0311279,0.0738525
55,3,0.0201416,0.0186157,0.0570679,0.0350952,0.0360107,0.0274658,0.0192261,0.0100708,0.022583,0.0106812,-0.0219727,0.0088501,0.03479
55,4,0.038147,0.00640869,0.0106812,0.0415039,0.027771,0.0338745,0.0363159,0.027771,0.0274658,0.0195312,-0.0228882,0.022583,0.0292969
56,0,0.0259399,0.0189209,0.00305176,0.0360107,0.0485229,0.0436401,0.0369263,0.0228882,-0.00518799,0.0299072,-0.03479,0.0012207,0.0161743
56,1,0.0491333,0.0115967,0.00762939,0.0201416,0.03479,0.020752,0.0134277,0.0311279,0.0167847,0.038147,-0.0268555,0.0268555,0.0305176
56,2,0.0112915,-0.010376,0.00549316,0.0326538,0.0393677,0.0457764,0.0210571,0.0424194,0.0247192,0.0323486,-0.0228882,0.000915527,0.0268555
56,3,0.071106,0.0311279,0.00701904,-0.0189209,0.0311279,0.0259399,0.0665283,0.00396729,0.00976562,-0.0421143,-0.012207,0.0164795,0.0405884
56,4,0.0222778,0.027771,0.0305176,0.0186157,0.0234985,0.038147,0.0180054,0.0149536,-0.00427246,0.0299072,-0.017395,0.0289917,0.0616455
57,0,0.0314331,0.00579834,0.0354004,0.0164795,0.0402832,0.0283813,0.0192261,0.0320435,0.0363159,0.027771,-0.010376,-0.0158691,0.017395
57,1,0.0393677,0.0234985,0.0158691,0.00671387,0.0262451,0.039978,0.0320435,0.0192261,0.00762939,-0.0256348,-0.0344849,0.020752,0.0366211
57,2,0.0170898,0.00366211,0.0494385,0.00915527,0.0430298,0.0274658,0.0296021,0.00701904,0.00671387,0.00488281,0.0180054,0.017395,0.0241089
57,3,0.0292969,0.00671387,0.0726318,0.020752,0.0323486,0.0302124,0.0210571,0.0302124,0.0302124,0.0170898,-0.0167847,-0.0012207,0.0320435
57,4,0.0732422,0.0396729,0.0610352,-0.0296021,0.0241089,0.0292969,0.0357056,0.0164795,0.00793457,0.00366211,-0.0189209,0.0161743,0.0259399
58,0,0.027771,0.00579834,0.0643921,0.0256348,0.03479,0.0454712,0.0140381,-0.0170898,0.022583,0.0164795,-0.0201416,0.020752,0.0302124
58,1,0.0134277,0.0189209,0.0497437,0.108337,0.0341797,0.0335693,0.0799561,0.0262451,0.0189209,-0.0167847,-0.0271606,0.0161743,0.0286865
58,2,0.0375366,0.0115967,0.0393677,0.0454712,0.0241089,0.0350952,0.0354004,0.0256348,0.0204468,0.00762939,-0.0112915,0.0231934,0.00976562
58,3,0.0146484,0.0143433,0.0238037,0.0338745,0.0271606,-0.0256348,0.0311279,0.0183105,0.0186157,0.000305176,-0.0210571,-0.00762939,0.027771
58,4,0.020752,0.0112915,0.0201416,0.0350952,0.0314331,0.0350952,0.0332642,0.0317383,-0.0238037,0.0158691,-0.00793457,-0.0335693,0.0262451
59,0,0.032959,0.0241089,0.0088501,0.00915527,0.0219727,0.0332642,0.0164795,0.0280762,0.0189209,0.0192261,-0.0131226,0.0115967,0.0448608
59,1,0.0216675,-0.00671387,0.0222778,0.0201416,0.0354004,0.0268555,0.0341797,0.0262451,0.0201416,0.0210571,-0.017395,0.032959,0.0177002
59,2,-0.0125122,-0.038147,0.00854492,0.0183105,0.0311279,0.0253296,0.0170898,0.022583,0.0177002,-0.00335693,-0.0195312,0.00366211,0.0289917
59,3,0.0222778,0.0201416,-0.012207,0.0268555,0.027771,0.0125122,0.0344849,0.0198364,0.017395,0.00244141,-0.017395,0.0198364,0.0140381
59,4,0.0201416,0.0378418,-0.0338745,0.0131226,0.03479,0.0320435,0.0231934,0.0216675,-0.00640869,0.0180054,-0.0231934,-0.0512695,0.0210571
60,0,0.00305176,0.0140381,-0.0152588,0.0234985,0.0302124,0.010376,0.0302124,0.0256348,-0.000610352,0.00976562,-0.0210571,0.0183105,0.0274658
60,1,0.0259399,0.0366211,-0.0265503,0.0262451,0.0320435,0.0143433,0.017395,0.0970459,0.0271606,0.00701904,-0.0198364,0.00854492,0.0363159
60,2,0.0164795,0.0338745,-0.0115967,0.0146484,0.0485229,0.0299072,0.00488281,0.0292969,0.0228882,0.00732422,-0.0238037,0.0140381,0.0238037
60,3,0.0463867,0.0137329,0.0137329,0.0189209,0.032959,0.022583,0.0283813,0.0497437,0.015564,0.017395,-0.00610352,0.0256348,0.0274658
60,4,0.012207,0.0183105,0.00183105,0.0308228,0.0146484,0.0439453,0.0170898,0.0415039,0.0180054,0.0302124,-0.00854492,-0.00427246,0.0244141
61,0,0.0161743,0.0424194,0.0552368,0.0183105,0.0308228,0.0299072,0.0314331,0.0186157,0.032959,0.0164795,-0.0244141,0.000610352,0.0323486
61,1,0.0286865,0.0405884,0.0189209,0.0170898,0.0100708,0.0192261,0.0384521,0.0604248,0.010376,0.0115967,-0.0177002,0.0161743,0.0201416
61,2,0.020752,0.0216675,0.113525,0.0149536,0.0320435,-0.0268555,0.0543213,0.0375366,0.0271606,0.043335,-0.0219727,0.00671387,0.0158691
61,3,0.00305176,0.00305176,0.0616455,0.0317383,0.0387573,0.0283813,0.0317383,0.0204468,0.0170898,-0.0140381,-0.0109863,0.0195312,0.0296021
61,4,0.017395,-0.0244141,0.0518799,0.0421143,0.100098,0.0460815,0.0479126,0.0219727,0.0219727,0.000610352,-0.0198364,0.0088501,0.0106812
62,0,0.0350952,0.0219727,0.0613403,0.032959,0.0308228,0.0265503,0.0186157,0.0305176,0.00823975,-0.0369263,-0.0186157,0.0198364,0.0665283
62,1,0.0698853,0.012207,0.0512695,0.0524902,0.0418091,0.0213623,0.027771,0.032959,0.0189209,0.0140381,-0.0149536,0.015564,0.0100708
62,2,0.0198364,0.0183105,0.0497437,0.0350952,0.0421143,0.0219727,0.0271606,0.0186157,0.0198364,0.0204468,-0.022583,0.0210571,0.0238037
62,3,0.0231934,0.0195312,0.022583,0.0222778,0.032959,0.00671387,0.022583,0.0302124,0.0405884,0.0198364,-0.0228882,0.000610352,0.0204468
62,4,0.0213623,0.0186157,0.0439453,0.0369263,0.0344849,0.0280762,0.0332642,0.0244141,0.0143433,-0.00549316,-0.0189209,0.0759888,0.0357056
63,0,0.0161743,0.0891113,0.0134277,0.0286865,0.0436401,0.0280762,0.0247192,0.0250244,0.0247192,0.0177002,-0.0189209,0.012207,0.0152588
63,1,0.0222778,0.0146484,0.0274658,0.0231934,0.0259399,-0.0158691,0.027771,0.0250244,-0.0482178,0.0183105,-0.0198364,-0.0390625,0.0241089
63,2,-0.00732422,0.0192261,-0.00457764,0.0436401,0.0326538,0.0427246,0.0344849,0.0292969,0.0332642,0.0128174,-0.00762939,0.0131226,0.0128174
63,3,0.0216675,0.0106812,-0.010376,0.0286865,0.0518799,0.0189209,0.0228882,0.0357056,0.017395,0.0134277,-0.0186157,0.0125122,0.0198364
63,4,0.0170898,0.0161743,-0.0323486,0.0311279,0.03479,0.0283813,0.0463867,0.0274658,0.0238037,0.015564,-0.0149536,0.0119019,0.0311279
64,0,0.0112915,0.0930786,-0.0299072,0.0268555,0.0531006,0.0296021,0.0256348,0.0323486,0.0134277,0.0213623,-0.0216675,0.0271606,0.0354004
64,1,0.0088501,0.0231934,-0.0161743,0.0216675,0.0161743,0.0259399,0.0234985,0.0415039,0.0143433,0.0112915,-0.0100708,0.0286865,0.0228882
64,2,0.0469971,0.0274658,-0.0115967,-0.027771,0.0286865,0.0289917,0.0274658,0.0415039,0.0149536,0.0128174,-0.0363159,0.0228882,0.0128174
64,3,0.0244141,0.0204468,-0.0137329,0.015564,0.0390625,0.0222778,0.0418091,0.0289917,0.0292969,0.0241089,-0.0192261,0.0088501,0.0292969
64,4,0.0201416,0.0195312,-0.00427246,-0.0286865,0.0283813,0.0189209,0.000915527,0.0390625,0.0299072,0.0268555,-0.0128174,0.0088501,0.0125122
65,0,0.03479,0.0238037,0.027771,0.010376,0.0204468,0.0335693,0.0250244,0.0463867,0.0311279,0.0256348,-0.0152588,0.0286865,0.0250244
65,1,-0.0320435,0.0238037,0.0448608,0.0286865,0.0366211,0.0253296,0.045166,0.0311279,0.0192261,-0.0265503,-0.0137329,0.022583,0.0344849
65,2,0.0143433,0.00946045,0.0418091,0.0189209,0.0320435,0.0378418,0.0332642,-0.00701904,0.0219727,0.0253296,0.0158691,0.017395,0.0195312
65,3,0.0335693,0.00762939,0.0436401,-0.00579834,0.0280762,0.0231934,0.0430298,0.0238037,0.0704956,0.0314331,-0.0186157,-0.0372314,0.00823975
65,4,0.0198364,0.0106812,0.0643921,0.0344849,0.0204468,0.0442505,0.0238037,0.0411987,0.0219727,0.0152588,-0.0140381,0,0.0292969
66,0,0.0604248,0.00305176,0.0448608,-0.0430298,0.0262451,0.0354004,0.0421143,0.0372314,0.0195312,0.0308228,0.00518799,0.015564,0.00976562
66,1,0.0115967,0.0161743,0.0765991,0.0216675,0.0234985,0.0253296,0.0201416,0.0369263,0.0186157,0.0213623,-0.0286865,0.012207,0.0231934
66,2,0.0137329,0.0146484,0.0671387,0.00946045,0.0222778,0.0411987,0.0674438,0.0262451,0.0201416,0.038147,-0.0164795,0.0158691,0.0149536
66,3,0.0164795,0.0186157,0.0332642,0.0134277,0.0332642,0.03479,0.0262451,0.0268555,0.0204468,0.0183105,-0.0286865,-0.0411987,0.0228882
66,4,0.0378418,0.0106812,0.0216675,0.0177002,0.0512695,0.032959,0.0302124,0.0570679,0.0213623,0.0274658,-0.0262451,-0.00457764,0.0158691
67,0,0.017395,0.0140381,-0.00976562,0.0146484,-0.0506592,0.0253296,0.0280762,0.062561,0.0366211,0.0350952,-0.0180054,0.022583,0.00366211
67,1,0.0231934,0.0247192,0.0253296,0.0131226,-0.0161743,0.0299072,0.0326538,-0.00976562,0.0411987,0.0296021,-0.0793457,0.0247192,0.022583
67,2,0.0314331,0.0460815,-0.0198364,0.0164795,0.0268555,0.039978,0.0402832,0.0497437,0.0332642,0.0253296,-0.0244141,0.0210571,0.0143433
67,3,0.0167847,0.0161743,-0.0341797,0.0161743,0.0299072,0.0170898,0.0308228,0.0366211,0.0247192,0.0247192,-0.0180054,0.00427246,-0.00274658
67,4,0.0619507,0.0204468,-0.015564,0.0582886,0.0228882,0.0256348,0.065918,0.0369263,0.015564,0.0204468,-0.010376,-0.00549316,0.0177002
68,0,0.020752,0.0259399,-0.0164795,0.0234985,0.027771,0.0204468,0.0320435,0.0387573,-0.00732422,0.0372314,-0.0241089,-0.00152588,0.015564
68,1,0.0222778,0.0259399,-0.0244141,0.0152588,0.00427246,0.032959,0.0341797,0.0418091,0.0299072,0.00579834,-0.00152588,0.00793457,0.0170898
68,2,0.0234985,0.0424194,-0.0311279,0.0222778,0.0219727,0.0326538,0.0366211,0.0430298,0.0454712,0.0323486,-0.0167847,0.0210571,0.0317383
68,3,0.0241089,0.0256348,-0.000915527,0.00915527,0.0112915,0.0354004,0.0384521,0.0283813,0.0241089,0.0152588,-0.0115967,0.00488281,-0.0286865
68,4,0.022583,0.0259399,-0.0408936,0.0115967,0.0283813,0.0326538,0.0387573,0.0296021,0.0241089,0.0262451,-0.0213623,0.0131226,0.0494385
69,0,0.0195312,0.038147,0.039978,0.00457764,0.012207,0.0250244,0.0161743,0.0396729,0.0369263,0.0253296,-0.0158691,0.0213623,0.012207
69,1,0.0164795,0.00549316,0.0213623,0.0213623,0.015564,0.0283813,0.0442505,0.0396729,0.0299072,0.0134277,-0.0119019,0.0216675,0.0167847
69,2,0.0198364,0.0143433,0.0189209,0.0088501,0.0280762,0.0177002,0.0384521,0.0201416,0.0253296,0.0149536,-0.017395,0.0250244,-0.012207
69,3,0.0271606,0.0198364,0.0341797,0.0115967,0.0299072,0.0253296,0.0296021,0.0289917,0.0292969,0.0274658,-0.0286865,0.0125122,0.0125122
69,4,0.0247192,-0.0201416,0.0634766,0.0109863,0.022583,0.0296021,0.0341797,0.032959,0.0231934,0.0274658,-0.00793457,0.0231934,0.0231934
70,0,0.0265503,-0.0354004,0.0460815,0.0234985,0.0842285,0.0280762,0.0363159,0.0296021,0.0265503,0.00976562,-0.0308228,-0.00518799,0.012207
70,1,0.0192261,0.0100708,0.0512695,0.0274658,0.0109863,0.0210571,0.0390625,0.0210571,0.0149536,0.0231934,-0.0161743,0.0323486,0.000610352
70,2,0.0231934,0.0088501,0.0613403,0.0228882,0.022583,0.0115967,0.0305176,0.0338745,0.0421143,0.022583,-0.0302124,0.0195312,0.0128174
70,3,0.0228882,0.0088501,0.0323486,0.0244141,0.0256348,0.0405884,0.0357056,0.0247192,0.0372314,0.0717163,-0.0283813,0.00823975,-0.00762939
70,4,0.0186157,-0.0302124,0.0317383,0.0314331,-0.00518799,0.0247192,0.0482178,0.0515747,0.0369263,0.0344849,-0.0183105,0.0311279,0.00823975
71,0,0.0283813,0.00427246,0.00946045,0.0457764,0.0274658,0.0256348,0.0186157,0.0308228,0.0436401,-0.0323486,-0.0405884,0.0216675,0.00213623
71,1,0.0268555,0.00793457,0.0161743,0.0210571,0.0192261,0.0308228,0.0326538,0.0234985,0.0244141,-0.0088501,0.00305176,0.0161743,0.0390625
71,2,0.0314331,0.0189209,-0.0137329,0.0100708,0.0161743,0.0204468,0.0250244,0.0408936,0.0357056,0.022583,-0.0354004,-0.00335693,0.0204468
71,3,0.0280762,0.00640869,0.0012207,0.0109863,0.00793457,0.0219727,0.0326538,0.0234985,0.0320435,0.0250244,-0.0411987,0.0170898,0.0164795
71,4,0.0219727,0.0320435,-0.0262451,0.00854492,0.0332642,0.0524902,0.0289917,0.0527954,0.0463867,0.0180054,-0.0143433,0.0189209,-0.00244141
72,0,0.0134277,0.00762939,-0.0448608,0.00549316,0.0247192,0.0460815,0.0372314,0.0421143,0.0219727,0.0241089,-0.0189209,0.0244141,0.0595093
72,1,-0.00762939,0.0738525,-0.0167847,0.0213623,0.0213623,0.0231934,0.0256348,0.00488281,0.0384521,0.0552368,-0.0195312,0.0772095,0.0106812
72,2,0.0253296,0.00396729,-0.0167847,0.0698853,0.0289917,0.0180054,0.0775146,0.0195312,0.0241089,0.0311279,-0.0228882,0.0305176,0.0140381
72,3,0.022583,0.0106812,0.0234985,0.0201416,0.0341797,0.0646973,0.0241089,0.0231934,0.0616455,0.0231934,-0.0198364,-0.0201416,0.0161743
72,4,0.0265503,0.0140381,-0.027771,0.00915527,0.0216675,0.090332,0.0247192,0.0369263,0.0842285,0.0323486,-0.0405884,0.0537109,0.0164795
73,0,0.0186157,0.0302124,0.0668335,0.0109863,0.0213623,0.0241089,0.0259399,0.0180054,0.0411987,0.0241089,-0.0244141,0.00732422,0.0140381
73,1,0.00762939,0.0350952,0.0378418,0.0146484,0.0430298,0.0674438,0.0280762,0.0283813,0.0286865,0.0274658,-0.0354004,0.0158691,0.020752
73,2,0.0323486,0.0216675,0.0280762,0.0213623,0.0149536,0.020752,0.00793457,0.0177002,0.0421143,0.00640869,-0.0250244,0.0244141,-0.00823975
73,3,0.0231934,0.0274658,0.00946045,0.00610352,0.0234985,0.0338745,0.0296021,0.0283813,0.0479126,0.0195312,-0.0204468,0.0012207,0.00671387
73,4,0.00946045,-0.00671387,0.0390625,-0.00915527,0.0308228,0.0317383,-0.00152588,0.0338745,0.0387573,0.0256348,-0.0204468,0.0204468,0.0109863
74,0,0.0311279,0.0115967,0.062561,0.0106812,0.0335693,0.0268555,0.0289917,0.0756836,0.0296021,0.0292969,-0.00396729,0.0283813,0.022583
74,1,-0.0192261,0.0198364,0.0497437,-0.0299072,0.0180054,0.0308228,0.0469971,0.0268555,0.0274658,0.020752,0.012207,0.0253296,0.0192261
74,2,0.0234985,0.00854492,0.0424194,0.0115967,0.0204468,0.0192261,0.0408936,0.0323486,0.0396729,0.0354004,-0.0244141,0.012207,0.0140381
74,3,0.0427246,0.0354004,0.0234985,0.0183105,0.0231934,0.0183105,0.0283813,0.0469971,0.0234985,0.0302124,-0.0204468,0.0234985,0.0146484
74,4,0.0219727,0.0131226,0.0274658,0.0314331,0.0268555,0.0140381,0.0344849,0.0384521,0.0299072,0.0213623,-0.0210571,0.0283813,0.0210571
75,0,0.0244141,-0.00244141,0.00854492,0.0750732,0.0238037,0.0311279,0.0198364,0.0167847,0.0497437,0.0366211,-0.0332642,0.00793457,0.0195312
75,1,0.0338745,0.0360107,-0.0283813,0.0265503,0.010376,0.0289917,0.0213623,0.039978,0.09552,0.0320435,-0.0393677,-0.0292969,0.020752
75,2,0.0177002,0.0228882,0.0170898,0.0100708,0.015564,0.0265503,-0.00579834,0.0311279,0.0369263,0.0656128,-0.0357056,0.0305176,0.0241089
75,3,0.0393677,0.0146484,0.00488281,0.0460815,0,0.0109863,0.0341797,0.0283813,0.027771,0.0204468,-0.0256348,0.0332642,0.0234985
75,4,0.0357056,0.0115967,-0.0238037,-0.00823975,0.0140381,0.043335,-0.0238037,0.0396729,0.0436401,-0.0161743,-0.0332642,0.00732422,0.0390625
76,0,0.0228882,0.020752,-0.0302124,0.00946045,0.010376,0.0286865,0.0112915,0.0326538,0.0372314,0.0259399,-0.0280762,0.0219727,0.0299072
76,1,0.0292969,0.0323486,0.00701904,0.000915527,0.0378418,0.0790405,0.0222778,0.0292969,-0.00671387,0.0216675,-0.0289917,0.020752,0.0106812
76,2,0.0106812,0.0271606,0.00183105,0.0119019,0.0582886,0.0274658,0.0283813,0.0256348,0.022583,0.0326538,-0.00610352,0.0302124,0.0274658
76,3,0.0308228,0.0228882,-0.0131226,0.0186157,0.0177002,0.0460815,0.0326538,0.0259399,0.0350952,0.0253296,-0.0158691,0.0262451,0.0250244
76,4,0.0280762,0.100403,0.027771,0.0170898,0.090332,0.027771,0.0234985,0.0512695,0.0363159,0.0262451,-0.0271606,0.0344849,0.0192261
77,0,0.0305176,0.0253296,0.0241089,0.0158691,0.017395,0.0128174,0.015564,0.0317383,0.0427246,0.0448608,-0.0360107,0.0311279,0.0180054
77,1,0.0186157,0.0274658,0.0012207,0.0112915,0.00793457,0.00976562,0.0256348,0.0244141,0.105896,0.0372314,-0.0311279,0.0619507,0.038147
77,2,0.0186157,0.0244141,0.0311279,0.0128174,0.0228882,0.0289917,0.0222778,0.0308228,0.0308228,0.0344849,-0.0308228,0.0012207,0.0204468
77,3,0.0140381,0.0152588,0.0140381,0.0189209,0.00549316,0.015564,0.0332642,0.0296021,0.0350952,0.0360107,-0.0424194,-0.0115967,0.0186157
77,4,0.0219727,0.0424194,0.0619507,0.0201416,-0.00640869,-0.00457764,0.0201416,0.0265503,0.00640869,0.0204468,-0.0253296,0.0274658,0.0137329
78,0,0.0161743,0.0268555,0.0640869,0.0238037,0.00701904,0.0186157,0.0231934,0.00274658,0.0317383,0.0979614,-0.0262451,0.0253296,0.0192261
78,1,0.015564,0.0268555,0.0402832,0.0244141,0.0280762,0.0289917,0.0317383,0.0546265,0.0314331,0.0567627,-0.0473022,0.0326538,0.0119019
78,2,0.038147,0.0262451,0.0180054,0.0192261,0.0115967,0.0231934,0.0259399,0.0296021,0.0375366,0.0314331,-0.0241089,0.0128174,0.0143433
78,3,0.0442505,0.0201416,0.0405884,0.0305176,0.0219727,0.0192261,0.0167847,0.0262451,0.0286865,0.00976562,-0.032959,0.0296021,0.0338745
78,4,0.0152588,0.0320435,0.0531006,0.022583,0.00946045,0.0265503,0.0210571,0.0088501,0.0363159,0.0332642,-0.057373,0.0302124,0.00793457
79,0,0.0280762,0.0326538,0.0115967,0.0189209,0.0186157,0.0323486,0.0222778,0.0183105,0.0820923,0.0253296,-0.0283813,0.0222778,0.0128174
79,1,0.0271606,0.0189209,0.0201416,0.0338745,0.017395,0.020752,0.0250244,0.0131226,0.0308228,0.0286865,-0.0332642,0.0305176,0.0308228
79,2,0.017395,0.0198364,0.0454712,0.0192261,0.000915527,0.0228882,0.027771,0.0393677,0.0189209,0.0332642,-0.039978,0.010376,-0.00457764
79,3,0.0231934,0.0192261,-0.00427246,0.0161743,0.0305176,0.0259399,0.0177002,0.0256348,0.0274658,0.0314331,-0.0369263,0.0250244,-0.00366211
79,4,0.0671387,0.032959,-0.0109863,0.0146484,0.0213623,0.0088501,0.0128174,0.0332642,0.032959,0.00915527,-0.0314331,0.0265503,0.0354004
80,0,0.0195312,0.0210571,-0.0546265,0.0253296,0.010376,0.032959,0.0228882,0.0317383,0.032959,0.0271606,-0.0393677,0.0302124,0.0408936
80,1,0.0253296,0.012207,0.00335693,0.000610352,0.0192261,0.0393677,0.0244141,0.0369263,0.0201416,0.022583,-0.0350952,0.0308228,0.0244141
80,2,0.0195312,0.00396729,0.010376,0.0299072,0.00671387,-0.00427246,0.0210571,0.0341797,0.0350952,0.0296021,-0.0387573,0.0137329,0.0210571
80,3,0.0393677,0.0286865,-0.00518799,0.00671387,0.0195312,0.0161743,0.0137329,0.0643921,0.0262451,0.0344849,-0.0323486,0.0442505,0.0323486
80,4,0.0253296,0.00793457,0.00274658,0.000610352,0.0341797,0.032959,0.0128174,0.0283813,-0.0177002,0.0393677,-0.0311279,0.0354004,0.0164795
81,0,0.0982666,0.0195312,0.0311279,0.0637817,0.0143433,0.0183105,0.000610352,0.0195312,0.0341797,-0.00976562,0.00640869,0.0344849,0.0396729
81,1,0.0299072,0.0274658,0.0198364,0.0106812,0.0106812,0.0164795,0.0302124,0.0186157,0.0213623,0.0302124,-0.0683594,0.039978,-0.00305176
81,2,0.0350952,0.0665283,0.0393677,-0.00305176,0.0213623,0.0265503,0.0253296,0.0186157,0.00213623,0.0241089,-0.0289917,0.0506592,0.0280762
81,3,0.06073,0.0289917,0.0213623,0.0357056,-0.00976562,0.017395,0.0296021,0.0769043,0.0201416,0.0332642,-0.0375366,0.0320435,0.0494385
81,4,0.0357056,-0.0228882,0.0457764,0.00915527,-0.0109863,0.0158691,0.0286865,0.0732422,0.0292969,0.0454712,-0.0366211,0.0338745,0.0354004
82,0,-0.0302124,0.0396729,0.065918,0.0430298,0.0186157,0.0250244,0.0241089,0.0274658,0.0384521,0.0292969,-0.0418091,0.0354004,0.0180054
82,1,0.0350952,0.0256348,0.057373,0.0326538,0.0186157,0.0320435,0.00732422,0.0375366,0.0152588,0.0262451,-0.0238037,0.0335693,0.0439453
82,2,0.0320435,0.0234985,0.0247192,0.022583,0.0164795,0.0219727,0.00183105,0.0299072,0.022583,0.0238037,-0.0408936,0.0213623,0.032959
82,3,0.0253296,-0.00396729,0.0326538,0.0210571,0.0314331,0.0167847,0.0234985,0.0454712,0.00305176,0.0314331,-0.0466919,0.0317383,0.0369263
82,4,-0.0280762,0.0280762,0.00610352,0.107117,0.0125122,0.0128174,-0.00793457,0.0186157,0.020752,0.0112915,-0.0253296,0.0357056,0.0735474
83,0,0.0796509,0.0125122,0.0387573,0.0274658,0.00915527,0.0143433,0.0256348,0.0262451,0.0109863,0.0350952,-0.0259399,0.0158691,0.0186157
83,1,0.0186157,0.0128174,0.00671387,0.0289917,0.0177002,0.0213623,0.0247192,0.0128174,0.00701904,0.0323486,-0.0244141,0.0167847,0.0210571
83,2,0.0247192,0.0271606,0.0204468,0.0296021,0.0183105,0.017395,0.0439453,0.010376,0.0204468,0.0137329,-0.0305176,0.0405884,0.0299072
83,3,0.0616455,0.0180054,0.00396729,-0.0317383,0.00213623,0.0198364,-0.00305176,0.0183105,0.012207,0.0738525,-0.0308228,0.0366211,0.0234985
83,4,0.0305176,0.0360107,-0.0170898,0.00854492,0.0146484,-0.020752,0.00671387,0.0265503,0.0668335,0.0320435,-0.0402832,0.0286865,0.0360107
84,0,0.0396729,0.0164795,-0.0344849,0.0149536,0.00549316,0.0213623,-0.00823975,0.00854492,0.0234985,0.0408936,-0.0314331,0.027771,-0.0100708
84,1,0.0378418,0.0152588,-0.0088501,0.0158691,0.0189209,0.0384521,0.0198364,0.022583,0.012207,0.027771,-0.0360107,0.0259399,0.0259399
84,2,0.0320435,0.00976562,-0.0146484,0,-0.0198364,0.00366211,0.0344849,0.0323486,0.0152588,0.0299072,-0.0262451,0.0244141,0.0216675
84,3,0.0256348,0.0408936,-0.00915527,0.00518799,0.00213623,0.012207,0.0372314,-0.00701904,0.020752,0.0427246,-0.0564575,0.0335693,0.0161743
84,4,0.0509644,0.0360107,0.020752,0.0448608,0.0106812,0.0393677,0.0128174,0.0137329,-0.000915527,0.0415039,-0.0344849,0.0314331,0.0256348
85,0,0.0436401,-0.00213623,0.0109863,0.0238037,-0.043335,0.017395,0.0106812,-0.0387573,0.0192261,0.03479,-0.0350952,0.022583,0.0308228
85,1,0.0231934,0.0408936,0.0424194,0.00823975,0.0143433,0.0323486,0.0280762,0.0131226,0.0143433,0.0167847,-0.0265503,0.0213623,0.038147
85,2,0.0405884,0.0292969,0.0354004,-0.00396729,0.0149536,0.0460815,-0.039978,0.0265503,0.0204468,-0.0161743,-0.0192261,0.0231934,0.0341797
85,3,0.0384521,0.0213623,0.0375366,0.0177002,0.0372314,0.0244141,0.0177002,0.0350952,0.000610352,0.0253296,-0.0189209,0.0421143,0.0314331
85,4,0.0170898,0.0302124,0.057373,0.0476074,0.0143433,0.0210571,0.0289917,0.0338745,0.0280762,0.0442505,-0.0411987,0.0408936,0.00854492
86,0,-0.0131226,0.0161743,0.071106,-0.0140381,0.0354004,0.0222778,0.0360107,0.0204468,0.0317383,0.101929,-0.0323486,0.0201416,0.0994873
86,1,0.0540161,0.0256348,0.0643921,0.0183105,0.0305176,0.0183105,0.0204468,0.0183105,0.0167847,0.0299072,-0.0405884,0.0274658,0.0387573
86,2,0.0305176,0.0265503,0.0469971,0.0158691,0.0198364,0.0231934,0.0320435,0.0244141,-0.0341797,0.0231934,-0.0314331,0.0317383,0.0204468
86,3,0.0302124,0.000305176,-0.00915527,0.0253296,0.0170898,0.0247192,0.0201416,0.0302124,0.00213623,0.0360107,-0.032959,0.0427246,0.0274658
86,4,0.0274658,0.0354004,0.0384521,0.0350952,-0.00610352,0.0256348,0.0213623,0.0247192,0.0210571,0.0271606,-0.0204468,0.0335693,0.0216675
87,0,0.0286865,0.0210571,0.0808716,0.0326538,0.00854492,-0.0543213,0.0192261,0.0222778,0.0506592,0.0341797,-0.0299072,0.0366211,0.00732422
87,1,0.0256348,0.0161743,0.0131226,0.0210571,0.022583,0.0088501,0.0186157,0.0259399,0.0177002,-0.0125122,-0.0231934,0.0305176,0.0262451
87,2,0.03479,0.038147,0.0186157,0.00854492,0.0283813,0.0259399,0.0213623,0.0180054,0.0186157,0.0332642,-0.00854492,0.0268555,0.0210571
87,3,0.0222778,0.0131226,0.0143433,0.0299072,0.022583,0.0167847,0.0241089,0.0250244,0.0152588,0.0247192,-0.0274658,0.039978,0.0262451
87,4,0.0286865,0.0228882,-0.0286865,0.0234985,0.00762939,0.0201416,0.0186157,0.0210571,0.015564,0.0241089,-0.0256348,0.0372314,0.0231934
88,0,0.0289917,-0.0387573,-0.0317383,0.0408936,0.0344849,0.0180054,0.010376,0.0228882,0.0201416,0.0228882,-0.0390625,0.0320435,0.032959
88,1,0.0192261,0.0234985,-0.0106812,0.0250244,0.0137329,0.0750732,0.032959,0.0241089,0.0177002,0.0149536,-0.0286865,0.0363159,0.0259399
88,2,0.03479,0.0244141,-0.00762939,0.0195312,0.0180054,0.0112915,0.0164795,0.038147,0.020752,0.0274658,-0.0363159,0.015564,0.0372314
88,3,0.0296021,0.0357056,-0.00183105,0.0338745,0.00976562,0.00762939,0.0253296,0.0149536,0.0274658,0.0375366,-0.0296021,0.0317383,0.0466919
88,4,0.03479,0.0317383,0.0408936,0.0784302,0.0180054,0.0296021,-0.0234985,0.0204468,0.0131226,0.0360107,-0.0238037,0.0247192,0.0274658
89,0,0.0372314,0.0378418,0.0247192,0.0268555,0.00549316,0.0164795,0.00793457,0.0146484,0.0152588,0.0152588,-0.0280762,0.0231934,0.0338745
89,1,0.0668335,0.0149536,0.0418091,0.0457764,0.0241089,0.0201416,0.0357056,0.0219727,0.0152588,0.0268555,-0.0228882,0.020752,0.0378418
89,2,0.0405884,0.0418091,0.0488281,0.0372314,0.00640869,0.0463867,0.0177002,0.0106812,0.0231934,0.0241089,-0.0283813,0.0253296,0.0283813
89,3,0.0341797,0.0289917,0.0906372,0.020752,0.0186157,0.0485229,0.038147,0.0112915,0.0244141,0.0320435,-0.0177002,0.0167847,0.0244141
89,4,0.0302124,0.0183105,0.0845337,0.057373,0.0216675,0.00335693,0.00457764,0.0186157,0.0213623,0.0259399,-0.0238037,0.0250244,0.0360107
90,0,0.0231934,0.0228882,0.0680542,0.0408936,0.0228882,0.00244141,0.0244141,0.0149536,0.00610352,0.0238037,-0.0320435,0.020752,0.0878906
90,1,0.0372314,0,0.0265503,0.0332642,0.0177002,-0.0256348,0.0125122,0.0344849,0.012207,0.0192261,-0.0323486,-0.0152588,0.0265503
90,2,0.0265503,0.0189209,0.0671387,0.0671387,0.0106812,0.0177002,0.0274658,0.00854492,0.0238037,0.0192261,-0.032959,0.0396729,0.0405884
90,3,0.038147,0.090332,0.0479126,0.0442505,0.0134277,0.0234985,0.0161743,0.0241089,0.0137329,0.0128174,-0.0283813,0.0354004,0.038147
90,4,0.0216675,0.0149536,0.0299072,0.0387573,0.0421143,-0.00152588,0.00427246,0.0305176,0.0308228,0.0158691,-0.0421143,-0.00915527,0.0360107
91,0,0.0344849,0.0195312,0.0302124,0.00854492,0.0143433,0.0247192,0.0164795,0.0146484,0.0180054,0.0479126,-0.0228882,0.0274658,0.0332642
91,1,0.0302124,-0.0369263,-0.0140381,0.0238037,0.0714111,0.000610352,0.0186157,0.00823975,0.0112915,0.00793457,-0.0198364,0.0274658,0.0411987
91,2,0.0262451,0.0360107,0.0222778,0.0216675,0.00701904,-0.00335693,0.0183105,0.00854492,0.0268555,0.0106812,-0.0302124,0.0213623,0.0415039
91,3,0.0320435,0.0274658,0.010376,0.0640869,0.0283813,0.0177002,-0.00579834,0.0164795,0.022583,0.0259399,-0.0405884,0.0265503,0.0378418
91,4,0.0308228,0.017395,0.0195312,0.0320435,0.0253296,0.0286865,-0.0286865,0.0195312,0.0167847,0.0549316,-0.0268555,0.0424194,-0.0302124
92,0,0.0314331,0.0372314,-0.0280762,0.0366211,0.0512695,0.00427246,0.0198364,0.0314331,0.0286865,0.0177002,-0.0302124,0.0384521,0.0268555
92,1,0.0280762,0.0354004,-0.00671387,0.00183105,0.0234985,0.0274658,0.032959,0.0305176,0.0152588,0.0408936,0.00549316,0.0369263,0.0494385
92,2,0.0201416,-0.015564,-0.00335693,0.0241089,0.0308228,0.0415039,0.0210571,0.0259399,0.0198364,0.0244141,-0.0305176,-0.027771,0.0354004
92,3,0.0247192,0.0195312,0.00579834,0.0244141,0.0280762,0.0112915,0.0335693,0.0219727,0.0250244,-0.0408936,-0.0393677,0.020752,-0.00976562
92,4,0.0146484,0.0357056,0.0170898,0.0109863,0.0247192,-0.0100708,0.00244141,0.0234985,0.0241089,0.00823975,-0.0170898,0.0259399,0.0463867
93,0,0.017395,0.0286865,0.0317383,0.0146484,0.0140381,0.0241089,0.0262451,0.0228882,0.0286865,0.0292969,-0.0357056,0.00976562,0.0390625
93,1,0.0283813,0.0354004,0.0735474,0.0231934,0.0198364,0.0308228,0.0271606,-0.00610352,0.0253296,0.0274658,-0.0198364,0.0238037,0.00823975
93,2,0.020752,0.0308228,0.0234985,0.00671387,0.0213623,0.0131226,0.00762939,0.0283813,0.0286865,0.0213623,-0.0238037,0.0265503,0.0299072
93,3,0.0445557,0.0561523,0.0534058,0.0482178,0.0180054,0.0213623,0.022583,0.027771,0.0323486,0.0228882,-0.0305176,0.0250244,0.0524902
93,4,0.0338745,0.0408936,0.0674438,0.0311279,0.0302124,0.0299072,0.0158691,0.0149536,-0.00396729,0.0238037,-0.0296021,0.0488281,0.0305176
94,0,0.0256348,0.0354004,0.0708008,-0.0106812,0.045166,0.0302124,0.0317383,0.00823975,0.0219727,0.0234985,-0.0271606,0.0314331,0.0473022
94,1,0.0238037,0.0189209,0.0640869,0.0259399,0.0439453,-0.0119019,0.00823975,0.032959,-0.0216675,0.0170898,-0.0341797,-0.0332642,0.0402832
94,2,0.0268555,0.0100708,0.0469971,0.0274658,0.0244141,0.0137329,0.00762939,0.0247192,0.0195312,0.0146484,-0.0308228,0.0280762,0.039978
94,3,0.0271606,0.0299072,0.0985718,0.0241089,0.0372314,0.0152588,0.0234985,0.00793457,0.0180054,0.0216675,-0.0259399,0.0344849,0.0482178
94,4,0.027771,0.050354,0.0488281,0.0259399,0,0.0149536,0.0222778,0.0735474,0.0204468,-0.0012207,-0.0558472,0.00793457,0.0427246
95,0,0.0131226,0.0228882,0.0485229,0.0402832,0.0286865,0.0234985,0.0161743,0.0964355,0.0210571,0.00915527,-0.015564,0.0320435,0.0411987
95,1,0.0271606,0.0216675,-0.0280762,0.0283813,0.0338745,0.015564,0.0344849,0.0308228,0.0308228,0.0213623,-0.0271606,0.045166,0.0393677
95,2,0.0289917,0.0509644,0.0289917,0.0170898,0.0280762,0.0265503,0.0219727,0.00915527,0.0213623,0.00823975,0.00549316,0.0146484,0.0332642
95,3,0.03479,0.0311279,0.017395,0.0250244,0.0332642,0.0363159,0.00305176,0.0128174,0.0332642,0.00946045,-0.0231934,0.0634766,0.0436401
95,4,0.0302124,0.0363159,-0.0222778,0.0305176,0.0274658,0.00518799,0.0247192,0.0234985,0.00946045,0.0216675,-0.0195312,0.0234985,-0.00518799
96,0,0.0332642,0.0491333,-0.032959,0.0299072,0.0137329,-0.0177002,0.0216675,0.0012207,0.0680542,0.0088501,-0.0338745,-0.0338745,0.0299072
96,1,0.0265503,0.0292969,0.0119019,0.0302124,0.0210571,0.0146484,0.0262451,0.0189209,0.0158691,0.010376,0.00396729,0.0360107,0.0393677
96,2,0.0292969,0.0247192,-0.0189209,0.0213623,0.0259399,0.0375366,0.0378418,0.0213623,0.0146484,0.0204468,-0.0238037,0.0238037,0.0402832
96,3,0.0192261,0.0100708,0.0228882,0.012207,-0.0198364,0.0314331,0.0177002,0.00518799,0.00762939,0.0112915,-0.0552368,0.0320435,0.0344849
96,4,0.0363159,0.0421143,-0.0402832,0.012207,0.0256348,0.0106812,0.0198364,0.0170898,0.0622559,0.0164795,-0.032959,0.0262451,0.0354004
97,0,0.0180054,0.0204468,-0.00305176,0.0308228,0.0442505,0.00488281,0.0271606,0.0137329,0.0170898,0.0140381,-0.0286865,0.0280762,0.0421143
97,1,0.0241089,0.039978,0.0430298,0.0192261,0.0219727,0.0186157,0.0149536,0.0119019,0.0366211,0.0128174,-0.0241089,-0.00579834,0.0305176
97,2,0.0140381,0.0341797,0.0457764,0.00701904,0.0186157,0.00396729,0.0204468,0.0100708,0.0213623,0.000305176,-0.0311279,0.0201416,0.0369263
97,3,0.0283813,0.0268555,0.0485229,0.0234985,0.0418091,0.0302124,0.0161743,0.0100708,0.0650024,0.0271606,-0.0164795,0.0888062,0.0137329
97,4,0.0308228,0.0335693,0.083313,0.0250244,0.0442505,0.0439453,0.0195312,0.000610352,0.0189209,0.0222778,-0.00671387,0.0323486,0.0274658
98,0,0.00366211,0.017395,0.0845337,0.0531006,0.0537109,0.0131226,0.0137329,-0.0137329,0.0106812,0.00854492,-0.0216675,0.0289917,0.0421143
98,1,0.0323486,0.0238037,0.0924683,0.0137329,0.0396729,0.0137329,-0.0125122,0.0164795,0.0161743,-0.0317383,-0.0152588,0.0210571,0.00549316
98,2,0.0259399,-0.0549316,0.0817871,0.0360107,0.010376,0.0341797,0.0180054,0.00152588,0.00152588,0.0137329,-0.0192261,0.0335693,0.0338745
98,3,0.0454712,0.0332642,0.0717163,0.0595093,0.0247192,0.0219727,0.0131226,0.0106812,0.00976562,0.012207,-0.0164795,0.0241089,0.0106812
98,4,-0.00854492,0.0140381,0.057373,0.0244141,0.0531006,0.0436401,-0.0100708,0.00335693,0.00976562,0.0247192,-0.00427246,0.0268555,0.0292969
99,0,0.0875854,0.0198364,0.0299072,0.0640869,0.0405884,0.0265503,0.0402832,0.0183105,0.012207,0.0128174,-0.00579834,0.0280762,0.0271606
99,1,0.0897217,0.0234985,0.0170898,-0.0479126,0.027771,0.0152588,0.0311279,0.00610352,0.00732422,0.0137329,-0.0149536,0.0247192,0.0289917
99,2,0.022583,0.032959,0.0473022,0.0305176,0.043335,-0.00549316,0.0256348,0.0350952,0.0338745,0.0286865,-0.0115967,0.0302124,0
99,3,0.0195312,0.0265503,0.0268555,0.0106812,0.0354004,0.0378418,0.0143433,0.00793457,0.0161743,0.0180054,-0.00671387,0.0177002,-0.00793457
99,4,0.0219727,0.0476074,0.022583,0.0296021,0.06073,0.0289917,0.0234985,0.0195312,0.00457764,0.0219727,-0.0186157,0.0350952,0.0210571
100,0,0.0280762,0.0323486,0.0213623,0.0238037,0.0280762,-0.00305176,0.0228882,0.00732422,0.0460815,0.0204468,-0.0158691,0.0210571,0.0408936
100,1,0.0228882,0.09552,-0.00366211,0.0180054,-0.0283813,0.0106812,0.027771,0.0234985,0.020752,0.0256348,-0.0244141,0.0183105,0.0283813
100,2,0.0177002,0.0259399,-0.012207,0.00640869,0.0427246,0.0204468,0.0250244,0.0283813,0.017395,0.0186157,-0.0265503,0.0244141,0.0402832
100,3,0.0164795,0.0280762,-0.00396729,0.00396729,0.0265503,0.0198364,0.0213623,0.010376,0.0180054,0.0201416,-0.0234985,0.0183105,0.0372314
100,4,-0.00427246,0.0289917,0.00854492,0.0161743,0.0454712,0.017395,0.022583,0.0231934,0.0308228,0.0238037,-0.0228882,0.0158691,0.0296021
101,0,0.0167847,0.0680542,0.00457764,0.017395,0.057373,0.0152588,0.0201416,0.00671387,0.015564,0.0152588,-0.0280762,0.0222778,0.0204468
101,1,0.022583,0.0305176,0.0415039,-0.0210571,0.0366211,0.022583,0.0531006,0.0283813,0.0213623,0.0183105,-0.0198364,0.0228882,-0.0256348
101,2,0.0228882,0.0180054,0.0234985,0.0189209,0.0213623,0.0457764,0.0189209,0.0256348,0.0167847,0.027771,-0.0201416,0.017395,0.0219727
101,3,0.0128174,0.0378418,0.0427246,0.0192261,0.0186157,0.038147,0.0283813,0.020752,0.0341797,0.0231934,-0.0241089,0.0421143,0.0146484
101,4,0.0436401,0.0817871,0.0592041,0.00366211,0.0863647,0.0216675,0.0354004,0.00579834,0.0231934,0.00640869,-0.0262451,0.0158691,0.0265503
102,0,0.0204468,0.0363159,0.0964355,0.0183105,0.0427246,0.0335693,0.0238037,0.0390625,0.0283813,0.0177002,-0.0213623,0.0289917,0.0280762
102,1,-0.0296021,0.0204468,0.0521851,0.0289917,0.0473022,0.0161743,0.0210571,0.0378418,0.0234985,0.0128174,-0.0360107,0.00732422,0.0244141
102,2,0.0177002,0.0222778,0.0234985,0.0350952,0.0448608,0.0286865,0.0244141,0.0195312,0.0280762,0.0244141,-0.0253296,0.0210571,0.0332642
102,3,0.00793457,0.0143433,0.065918,0.0390625,0.0424194,0.0341797,0.0234985,0.0131226,0.0131226,0.0186157,-0.0357056,0.0198364,0.0106812
102,4,0.00915527,0.0167847,0.0393677,0.0256348,0.020752,0.0247192,0.0186157,0.0311279,0.0210571,0.0186157,-0.0213623,0.0134277,0.0210571
103,0,0.0201416,0.0286865,0.0305176,0.0134277,0.0198364,0.0323486,0.0415039,0.00457764,0.017395,0.00610352,-0.0100708,0.0131226,0.0296021
103,1,0.00823975,0.0247192,-0.0012207,0.0262451,0.0244141,0.0335693,0.0390625,0.0100708,0.0192261,0.0238037,-0.0265503,0.0137329,0.00976562
103,2,0.012207,0.010376,0.0244141,0.0296021,0.0335693,0.0506592,0.0201416,0.0335693,-0.0115967,-0.000915527,-0.0112915,0.0164795,-0.0476074
103,3,-0.000610352,0.0256348,0.00701904,0.0354004,0.0509644,0.0308228,0.0213623,0.0360107,0.017395,0.00213623,-0.0384521,0.0109863,0.0271606
103,4,0.0161743,0.0152588,0.00915527,0.0204468,0.03479,0.0418091,0.0213623,0.0283813,0.0662231,0.0320435,-0.017395,0.0241089,0.0280762
104,0,0.0189209,0.0363159,-0.0106812,0.0256348,0.0366211,0.0311279,0.0213623,-0.0485229,0.0112915,0.00732422,0.0137329,0.017395,0.0201416
104,1,0.0100708,0.043335,0.0012207,0.0192261,0.017395,0.0317383,0.0402832,0.0305176,0.0286865,0.00946045,-0.015564,0.0222778,0.0234985
104,2,-0.00579834,0.0183105,0.00396729,0.0320435,0.0350952,0.0384521,0.0354004,0.0198364,0.0231934,0.00701904,-0.00305176,0.0115967,0.0131226
104,3,0.0115967,0.0192261,-0.0137329,0.0201416,0.0256348,0.032959,0.0271606,0.020752,0.0482178,0.0201416,-0.0140381,0.0134277,0.0296021
104,4,0.0213623,0.0241089,0.0088501,0.0308228,0.0259399,0.0445557,0.0167847,0.0332642,0.0161743,0.0241089,-0.0213623,0.0314331,0.0408936
105,0,0.0286865,0.0302124,-0.00305176,0.0152588,0.0323486,0.0411987,0.0698853,0.015564,0.00915527,0.0231934,-0.0158691,-0.000915527,0.00213623
105,1,0.00701904,0.0112915,0.0335693,0.00274658,0.0289917,0.0238037,0.0405884,0.00671387,0.0195312,0.020752,0.0088501,0.0180054,0.0115967
105,2,0.0271606,0.0280762,0.00457764,0.0259399,0.0216675,-0.0106812,0.0271606,0.0390625,0.0738525,0.00488281,-0.0228882,-0.0378418,0.0100708
105,3,0.0210571,0.0311279,0.0314331,0.0210571,0.0274658,0.0360107,0.0283813,0.0259399,0.0228882,0.0320435,-0.0167847,0.0204468,0.0192261
105,4,0.0192261,0.0274658,0.0286865,0.015564,0.0692749,0.0180054,0.0308228,0.0149536,0.0305176,0.00854492,-0.0180054,0.0201416,0.0213623
106,0,-0.0579834,0.0271606,0.0576782,0.0408936,0.0274658,0.0454712,0.0384521,0.0326538,0.0143433,0.0115967,0.0210571,0.0183105,0.0146484
106,1,0.0241089,0.0314331,0.093689,0.0393677,0.0299072,0.0427246,0.0296021,0.0234985,0.0158691,0.00549316,-0.0213623,0.0250244,0.027771
106,2,0.0219727,0.0158691,0.06073,0.0317383,0.0250244,0.0286865,0.0311279,0.0100708,0.00701904,0.00976562,-0.0198364,0.0106812,-0.0262451
106,3,0.0177002,0.0177002,0.0570679,0.0332642,0.0430298,0.0558472,0.0128174,0.0186157,0.0115967,0.0112915,-0.0152588,0.0140381,0.0234985
106,4,-0.00244141,0.0305176,0.0369263,0.0518799,0.0314331,0.027771,0.00518799,0.0228882,0.0393677,0.00274658,-0.0210571,0.0131226,-0.0308228
107,0,0.0183105,0.00640869,0.0149536,0.0360107,0.0476074,0.0323486,0.0280762,0.0012207,0.0268555,0.0125122,-0.0250244,0.0183105,0.0115967
107,1,0.0222778,0.0271606,0.0115967,0.0387573,0.0375366,0.0283813,0.057373,0.0134277,-0.0219727,0.00152588,-0.0189209,0.0439453,0.0134277
107,2,0.0219727,0.0299072,0.0320435,0.0305176,0.0161743,0.0332642,0.0244141,0.0250244,0.00396729,0.0720215,-0.0265503,0.0219727,0.039978
107,3,0.000610352,0.0238037,-0.00274658,0.0299072,0.0543213,0.00152588,0.0274658,0.0213623,0.00518799,0.0289917,-0.0244141,0.0109863,0.00427246
107,4,0.010376,0.00946045,0.0119019,0.0418091,0.0479126,0.0512695,0.0216675,0.0146484,0.0158691,0.000305176,-0.0210571,0,-0.00518799
108,0,0.0241089,0.0292969,-0.00762939,0.0378418,0.0637817,0.0219727,0.0323486,0.065918,0.0183105,0.0213623,-0.0216675,0.010376,0.0213623
108,1,0.0137329,0.00274658,-0.0289917,0.032959,0.0314331,0.0415039,0.0326538,0.039978,0.0250244,0.0192261,-0.027771,0.0146484,0.012207
108,2,0.0198364,0.0134277,-0.027771,0.0228882,-0.0106812,0.0350952,0.0350952,0.0442505,0.0186157,0.00701904,-0.0234985,0.0158691,0.00946045
108,3,0.00762939,0.0131226,-0.00183105,0.0442505,0.0213623,0.0378418,0.0375366,0.0149536,0.0131226,0.0262451,-0.0198364,0.0189209,0.0180054
108,4,0.027771,0.0128174,0.0100708,0.0491333,0.0964355,0.0393677,0.0195312,0.0146484,0.0335693,0.0311279,-0.0213623,0.0131226,0.0253296
109,0,0.0201416,0.0317383,-0.0183105,0.0231934,0.0228882,0.0241089,0.0411987,0.0274658,0.0436401,0.0189209,-0.0195312,0.0323486,0.0149536
109,1,0.0177002,0.0238037,0.00274658,0.0167847,0.017395,0.0274658,0.0247192,0.0524902,0.0286865,0.0344849,-0.03479,0.0152588,0.0119019
109,2,0.0201416,0.0265503,-0.00823975,0.0146484,0.0357056,0.0286865,0.0570679,0.017395,0.010376,0.00640869,-0.00610352,0.0088501,-0.0408936
109,3,0.0183105,0.0488281,-0.00854492,0.0244141,-0.0259399,0.0253296,0.0390625,0.067749,0.00946045,0.015564,-0.0238037,0.0357056,0.015564
109,4,0.055542,0.0250244,0.00915527,-0.0299072,0.0350952,0.0302124,0.012207,0.0454712,0.0241089,0.012207,-0.0115967,0.0128174,0.0192261
110,0,0.00305176,0.0222778,0.0576782,0.0247192,0.0320435,0.0128174,0.0341797,0.00366211,0.0393677,0.00823975,-0.00518799,-0.00213623,-0.000610352
110,1,0.032959,0.0213623,0.0491333,0.020752,0.0119019,0.0430298,0.0167847,0.0350952,0.00793457,0.000915527,-0.0195312,0.0088501,0.0390625
110,2,0.0192261,0.0201416,0.0350952,0.0332642,0.0311279,0.0350952,0.0442505,0.0219727,0.0302124,-0.0143433,-0.0198364,0.0149536,-0.00183105
110,3,0.0115967,0.0186157,0.0302124,0.0292969,0.0189209,0.000305176,0.0341797,0.0317383,0.0515747,0.00579834,-0.0262451,-0.00701904,0.0170898
110,4,0.0180054,0.0161743,0.0344849,0.0198364,0.0256348,0.0387573,0.0360107,0.038147,0.0531006,0.0250244,-0.0302124,0.0201416,0.0250244
111,0,0.0125122,0.0119019,-0.0378418,0.0228882,0.027771,-0.0238037,0.0332642,0.0195312,0.0262451,0.0183105,-0.0210571,0.0125122,0.038147
111,1,0.0289917,-0.00213623,0.012207,0.0302124,0.0439453,0.0466919,0.0323486,0.0198364,0.0137329,0.00701904,-0.0140381,0.020752,-0.00244141
111,2,0.0265503,0.0186157,0.022583,0.0405884,0.06073,0.0323486,0.0119019,0.0610352,0.0222778,0.0241089,-0.0268555,0.0308228,0.0210571
111,3,0.0247192,0.010376,-0.00976562,0.0268555,0.0234985,0.00823975,0.0418091,0.0302124,0.0454712,0.0131226,-0.0274658,0.00762939,0.0234985
111,4,0.010376,-0.0653076,0.0106812,0.0189209,0.0518799,0.0253296,0.0354004,0.0396729,0.0299072,0.0186157,-0.0323486,0.0149536,0.0228882
112,0,0.0164795,0.0271606,0.00579834,0.0335693,0.0469971,0.0302124,0.0393677,0.0457764,0.0238037,0.020752,-0.0283813,0.00396729,0.015564
112,1,-0.0180054,0.0143433,-0.0289917,0.0280762,0.0283813,0.0280762,0.0393677,0.0341797,0.00152588,0.0134277,0.0396729,0.039978,0.0128174
112,2,0.00579834,0.0170898,-0.0262451,0.03479,0.0262451,0.0360107,0.039978,0.00854492,0.0247192,0.0357056,-0.0234985,0.0149536,0.0137329
112,3,-0.0286865,0.0149536,0.0115967,-0.00366211,0.0244141,0.0289917,0.0109863,0.027771,0.0201416,0.0402832,-0.0177002,0.0335693,0.0445557
112,4,0.0146484,-0.0012207,0.0259399,0.0259399,0.0247192,0.0408936,0.0286865,0.022583,0.0228882,0.0170898,-0.020752,0.00152588,0.0088501
113,0,0.0238037,0.0268555,-0.00457764,0.0457764,0.0256348,0.0109863,-0.0402832,0.0286865,0.0271606,0.0302124,-0.020752,0.00457764,0.0189209
113,1,0.0149536,0.0283813,0.0234985,0.00793457,0.0158691,0.0219727,0.0158691,0.0378418,0.0119019,0.0341797,-0.0265503,0.0198364,0.0369263
113,2,0.0143433,0.0234985,0.027771,0.022583,0.012207,0.0296021,0.0357056,0.0387573,-0.00457764,0.0244141,-0.0296021,0.0283813,0.0231934
113,3,0.0143433,0.00823975,0.0473022,0.0335693,0.0161743,0.0170898,0.0366211,0.0271606,0.03479,0.0286865,-0.0234985,-0.0320435,0.0137329
113,4,-0.0326538,0.0195312,0.0296021,0.0561523,0.0256348,0.0088501,0.0280762,0.0341797,0.03479,0.0253296,-0.0613403,0.0119019,0.0238037
114,0,0.00518799,-0.00640869,0.0524902,0.00854492,0.015564,0.0161743,0.0259399,0.0274658,0.0387573,0.0238037,-0.0283813,0.0256348,0.0820923
114,1,0.0369263,0.0137329,0.0576782,0.0631714,0.0323486,0.0317383,0.0149536,0.0210571,0.0326538,0.0115967,-0.0167847,0.0326538,0.0192261
114,2,0.0167847,0.00549316,0.0454712,0.0363159,0.0222778,0.0595093,0.0259399,0.0231934,0.0149536,0.0256348,-0.0186157,0.0747681,0.0219727
114,3,0.00793457,0.0137329,0.0338745,0.0231934,0.022583,0.0469971,0.0234985,0.0222778,0.0372314,0.0210571,-0.00915527,0.00183105,0.0137329
114,4,0.0201416,-0.0213623,0.0201416,0.0344849,0.0289917,0.0387573,0.0341797,0.0228882,0.0296021,0.00183105,-0.0198364,0.00274658,0.0222778
115,0,0.0219727,-0.0088501,0.00701904,0.0265503,-0.0213623,0.0448608,0.0158691,0.0274658,0.0265503,0.0219727,-0.0256348,0.00976562,0.0186157
115,1,0.0131226,0.0262451,0.00701904,0.0302124,0.0344849,0.0402832,0.0219727,0.0244141,0.03479,0.0189209,-0.0219727,0.0216675,0.0244141
115,2,0.0198364,0.0180054,0.00488281,0.0134277,0.0299072,0.0393677,0.0219727,0.0357056,0.0204468,0.0296021,-0.0100708,0.0274658,-0.00549316
115,3,-0.00823975,0.027771,-0.0195312,-0.0402832,0.0289917,0.0280762,0.0296021,0.00976562,0.045166,0.0286865,-0.0228882,0.00610352,0.0143433
115,4,0.0228882,0.0222778,-0.0158691,0.0265503,0.0238037,0.0292969,0.0259399,0.0256348,0.0698853,0.00976562,-0.0161743,0.0146484,0.0250244
116,0,0.00427246,0.0137329,-0.0219727,0.0311279,0.0341797,0.0387573,0.0286865,0.0366211,0.0302124,0.0231934,-0.0317383,0.010376,0.015564
116,1,0.0271606,-0.00823975,-0.0268555,0.0158691,0.0112915,0.0259399,0.0476074,0.03479,0.0296021,0.0466919,-0.0216675,0.0177002,0.0302124
116,2,0.0265503,0.00427246,-0.0253296,0.0192261,0.0234985,0.032959,0.0311279,0.0436401,0.0393677,0.0308228,-0.0375366,0.0192261,-0.0341797
116,3,0.0140381,0.0128174,-0.00732422,0.012207,0.0354004,0.0177002,0.0454712,0.0436401,0.0280762,-0.0216675,-0.0158691,0.0247192,-0.0265503
116,4,0.0274658,0.0360107,-0.00183105,0.00579834,0.0323486,0.0274658,0.0360107,0.0238037,0.0363159,-0.0137329,-0.0238037,0.0161743,0.0631714
117,0,0.0494385,0.0262451,0.0140381,0.0320435,0.0256348,0.0326538,0.0473022,0.0146484,0.0314331,0.0289917,-0.0335693,0.0216675,0.0201416
117,1,0.00793457,0.0213623,0.0820923,0.017395,0.0231934,0.0457764,0.0177002,0.0341797,0.0222778,0.0366211,-0.0296021,0.0137329,0.00732422
117,2,0.0564575,0.00579834,0.0317383,0.0140381,0.0500488,0.00854492,0.0341797,0.0415039,0.0244141,0.0186157,-0.0430298,0.0250244,0.0167847
117,3,0.0265503,-0.00244141,0.0088501,0.0250244,0.0231934,0.0262451,0.00762939,0.0354004,0.0140381,0.027771,-0.0262451,0.0283813,0.0280762
117,4,0.0210571,0.0244141,0.0274658,0.0137329,-0.0274658,0.0195312,0.0354004,0.0741577,0.0268555,0.0299072,-0.0228882,0.00579834,0.015564
118,0,0.0186157,0.0167847,0.0344849,0.0161743,0.0106812,0.017395,0.0396729,0.0210571,0.0299072,0.0350952,-0.0311279,0.0125122,0.0253296
118,1,0.0244141,0.020752,0.0546265,0.0189209,0.0210571,0.0527954,0.0280762,0.0372314,-0.0183105,0.0210571,-0.0247192,0.0250244,0.0314331
118,2,0.03479,0.0128174,0.0482178,0.0192261,0.0238037,0.0222778,0.0476074,0.0256348,0.0476074,0.0134277,-0.0253296,0.00518799,0.0238037
118,3,0.0149536,0.0360107,0.022583,0.0238037,0.027771,0.0244141,0.0415039,-0.00762939,0.0390625,0.0259399,-0.0268555,0.0250244,0.0161743
118,4,0.0186157,0.0134277,0.0393677,0.0436401,0.0180054,0.0189209,0.0369263,0.0308228,0.0222778,0.0350952,-0.0247192,0.0186157,0.0231934
119,0,0.0268555,0.0198364,0.0161743,0.0424194,0.00457764,-0.000915527,0.0314331,0.0372314,0.0195312,0.0204468,-0.0213623,0.0476074,0.017395
119,1,0.0216675,0.0274658,0.00915527,0.0418091,0.0195312,0.0177002,0.0396729,0.0708008,0.0271606,0.0357056,-0.0305176,0.020752,0.0250244
119,2,0.0262451,0.0152588,-0.0143433,0.0335693,-0.00183105,0.0283813,0.0332642,0.032959,0.0299072,0.0115967,-0.017395,0.022583,0.0390625
119,3,0.0271606,0.0100708,0.00396729,0.0296021,-0.00518799,0.0128174,0.022583,0.0366211,0.0289917,0.0375366,-0.0192261,0.00701904,0.0262451
119,4,0.0408936,0.0164795,0.00457764,0.0354004,0.0268555,0.00457764,0.00793457,0.0183105,0.0473022,0.0500488,-0.0192261,0.0152588,-0.00335693
120,0,0.0265503,0.032959,-0.0485229,0.0204468,0.0189209,0.0436401,0.0289917,0.0390625,0.03479,0.0180054,-0.0140381,-0.020752,0.012207
120,1,0.0354004,0.00488281,-0.0357056,-0.0265503,0.0189209,0.00854492,-0.0128174,0.0357056,0.0360107,-0.00427246,-0.0210571,0.027771,0.0271606
120,2,0.0299072,0.0180054,-0.0189209,0.0357056,0.00335693,0.000915527,0.03479,0.0228882,0.0125122,0.0314331,-0.0387573,0.0228882,0.0271606
120,3,0.0271606,0.0192261,0.00274658,0.00396729,0.0219727,-0.000305176,0.0292969,0.0488281,-0.0128174,0.0408936,-0.0341797,-0.022583,0.0274658
120,4,0.0192261,0.0109863,-0.0280762,0.0088501,0.0314331,0.0448608,0.022583,0.0219727,0.0253296,0.0408936,-0.0262451,0.0231934,0.0152588
121,0,0.0289917,0.0140381,-0.0375366,0.00152588,0.0234985,0.0479126,0.0366211,0.0256348,0.0378418,0.043335,-0.0320435,0.0198364,-0.000915527
121,1,0.0296021,0.0186157,0.0274658,0.00610352,0.00854492,0.0195312,0.0143433,0.0201416,0.0335693,0.0213623,-0.0344849,0.0387573,0.0241089
121,2,0.00488281,0.0158691,0.0418091,0.012207,0.0146484,0.022583,0.0244141,0.0323486,0.0292969,0.0411987,-0.0234985,0.0308228,0.0183105
121,3,0.0283813,0.0112915,0.010376,0.0720215,0.0283813,0.00701904,0.0344849,0.0375366,0.0256348,0.0289917,-0.0357056,0.0238037,0.0396729
121,4,0.0296021,0.00335693,0.0500488,0.010376,0.039978,0.0265503,0.0344849,-0.0244141,0.0289917,0.0448608,-0.0579834,0.0286865,0.0189209
122,0,0.093689,0.0192261,0.0427246,-0.0201416,0.0164795,0.0177002,0.0549316,0.0167847,0.0338745,-0.0112915,-0.0262451,0.0213623,0.0570679
122,1,0.022583,0.00427246,0.0671387,0.0143433,0.0164795,0.0271606,0.0234985,0.022583,0.0177002,0.0363159,-0.0311279,0.0463867,0.0344849
122,2,0.0256348,-0.0424194,0.0439453,0.00793457,0.0106812,0.017395,0.0222778,0.0198364,0.0338745,0.0320435,-0.032959,0.0341797,0.0216675
122,3,0.0311279,0.020752,0.0222778,0.0146484,0.0244141,0.012207,0.0271606,0.0219727,0.0228882,0.0314331,-0.0338745,0.0183105,0.0286865
122,4,0.00488281,0.0137329,0.0250244,-0.0384521,0.00915527,-0.000610352,0.0723267,0.0305176,0.0320435,0.039978,-0.0326538,0.020752,0.0152588
123,0,0.0289917,0.0152588,0.0195312,0.0134277,0.0210571,0.0210571,0.0253296,0.0112915,0.00274658,0.0387573,-0.0247192,0.0357056,0.0308228
123,1,0.0250244,0.00183105,0.0357056,-0.0320435,0.0177002,0.020752,0.0680542,0.0140381,0.0363159,0.0534058,-0.0198364,0.0256348,0.0134277
123,2,0.0738525,0.00823975,0.0180054,0.0234985,0.0259399,0.0115967,0.0271606,0.0164795,0.00793457,0.0326538,-0.0170898,0.0378418,0.0106812
123,3,0.027771,0.00976562,0.0106812,0.0332642,0.0201416,0.0262451,0.093689,0.00671387,0.0247192,0.0540161,-0.0244141,0.0231934,-0.0152588
123,4,0.0567627,0.022583,0.00854492,0.00305176,0.00549316,0.0131226,0.010376,0.0170898,0.0302124,0.0482178,-0.0213623,0.0274658,0.0112915
124,0,0.0384521,0.0140381,0.0152588,0.00213623,0.00976562,0.0765991,0.0363159,0.0204468,0.0894165,0.0262451,-0.0341797,0.0308228,0.0177002
124,1,0.0271606,0.0271606,-0.0100708,0.00732422,0.0442505,0.00244141,0.0170898,0.0253296,0.0424194,0.0283813,-0.0460815,0.0186157,0.00762939
124,2,0.0164795,0.0259399,0.00305176,0.0296021,0.0134277,0.0241089,0.0305176,0.0250244,0.0195312,0.0289917,-0.0302124,0.0164795,0.0100708
124,3,0.0250244,0.0482178,0.0128174,0.010376,0.0360107,0.0204468,0.0201416,0.022583,0.0247192,0.0320435,-0.0308228,0.0250244,0.0314331
124,4,0.0354004,0.0689697,-0.00854492,0.0119019,0.0527954,0.0201416,0.0317383,0.0213623,0.0268555,0.0341797,-0.0305176,0.0201416,0.0177002
125,0,0.0210571,0.0256348,-0.000610352,0.0262451,0.0262451,0.0259399,0.0210571,0.0311279,-0.0012207,0.0265503,-0.0311279,0.0247192,0.0140381
125,1,0.0271606,0.0289917,0.00549316,0.0134277,0.0112915,0.015564,0.0335693,0.0146484,0.0186157,0.0308228,-0.0180054,0.020752,0.0186157
125,2,0.0375366,0.0250244,0.0143433,0.0119019,0.0128174,0.022583,0.0213623,0.0222778,0.0250244,0.0308228,-0.0271606,0.0140381,0.0268555
125,3,0.0302124,0.0152588,0.0268555,0.017395,0.012207,0.0244141,0.0161743,-0.0320435,0.0326538,0.0299072,-0.0317383,0.0271606,0.0259399
125,4,0.0357056,0.0314331,0.0271606,0.00610352,0.00732422,0.0167847,0.0393677,0.0247192,0.0354004,-0.00335693,-0.0408936,0.0247192,0.0350952
126,0,-0.0430298,0.0231934,0.0598145,0.0439453,0.0152588,0.0180054,0.0271606,0.0262451,0.0112915,0.0274658,-0.0320435,0.0280762,0.0259399
126,1,0.015564,0.0180054,0.00915527,0.0180054,0.0128174,0.0280762,0.0305176,0.020752,0.0305176,0.0473022,-0.0378418,0.0189209,0.0152588
126,2,0.0415039,-0.00335693,0.0387573,0.0088501,0.0238037,0.0271606,-0.00335693,0.0228882,0.03479,0.0418091,-0.0387573,0.0222778,0.0183105
126,3,0.0360107,0.0106812,0.0497437,0.010376,-0.0161743,0.0134277,0.0241089,0.0674438,0.0244141,0.0442505,-0.0668335,0.0338745,0.0280762
126,4,0.0308228,0.027771,0.0494385,0.0308228,0.0158691,0.0289917,0.0146484,0.012207,-0.0100708,0.0408936,-0.0357056,0.0372314,0.0259399
127,0,0.0280762,0.0183105,0.0308228,-0.00427246,0.0137329,0.0152588,0.03479,0.0228882,0.0280762,0.0436401,-0.0421143,0.0360107,0.0296021
127,1,0.03479,-0.0418091,0.0308228,0.022583,0.0750732,0.0189209,0.0253296,0.0692749,0.0253296,0.0268555,-0.0320435,0.0311279,0.0128174
127,2,0.0311279,0.0286865,0.0088501,0.0167847,0.0177002,0.0137329,0.0100708,0.00946045,0.0311279,0.0338745,-0.0463867,0.0204468,0.00823975
127,3,0.0204468,0.0204468,0.0341797,0.0210571,0.00366211,0.00579834,0.0247192,0.0131226,0.0186157,0.0231934,-0.0308228,0.022583,0.0323486
127,4,0.0408936,0.0192261,0.0460815,0.0119019,0.0177002,0.0131226,0.0253296,0.0375366,0.0384521,0.0274658,-0.0372314,0.0219727,0.0354004
128,0,0.0195312,0.0317383,-0.012207,0.027771,0.0158691,-0.00366211,0.0204468,0.0256348,0.0012207,0.0177002,-0.0311279,0.0210571,0.0338745
128,1,0.0430298,0.03479,-0.00396729,0.0140381,0.0183105,0.0158691,0.00915527,0.0177002,0.0317383,0.0509644,-0.0305176,0.0320435,0.0238037
128,2,0.0222778,0.0366211,-0.0189209,0.017395,0.0234985,0.0354004,0.020752,-0.0286865,0.0317383,0.0387573,-0.0183105,0.0115967,0.0384521
128,3,0.0204468,0.0271606,0.0216675,0.0146484,-0.00518799,0.0140381,0.0180054,0.0216675,0.00793457,0.0369263,-0.0222778,-0.0164795,0.0262451
128,4,0.0280762,0.0286865,0.0149536,0.0210571,0.0088501,0.0158691,0.0134277,0.0210571,0.0317383,0.020752,-0.0302124,0.0137329,0.045166
129,0,0.0198364,0.0466919,0.00701904,0.00854492,0.00396729,0.00305176,0.027771,0.0115967,0.0210571,0.0265503,-0.0265503,0.0326538,0.0311279
129,1,0.0366211,0.0592041,0.0115967,0.00488281,0.0460815,0.0161743,0.0125122,0.0314331,0.0259399,0.0146484,-0.0457764,0.0942993,0.0241089
129,2,0.0186157,0.0421143,0.0335693,0,0.010376,0.0231934,0.0289917,0.0674438,0.0161743,0.0265503,-0.0238037,0.0234985,0.043335
129,3,0.039978,0.0320435,0.0488281,0.0186157,0.00976562,0.0100708,0.0210571,-0.00274658,0.0296021,0.0222778,-0.0296021,0.027771,0.0146484
129,4,0.0939941,0.0289917,0.0418091,0.0585938,0.0338745,0.0149536,-0.00762939,0.0170898,0.0241089,0.0234985,-0.0268555,0.0335693,0.0247192
130,0,0.0222778,0.0384521,0.0796509,0.00549316,0.0012207,0.0143433,0.0390625,0.0109863,0.0283813,0.0204468,-0.0408936,0.027771,0.0973511
130,1,0.0323486,0.0125122,0.0588989,0.0289917,-0.00183105,0.0265503,0.038147,0.0231934,0.0241089,0.0543213,-0.0418091,0.0289917,0.0231934
130,2,0.0234985,0.0180054,0.0930786,0.0274658,0.0289917,-0.00549316,0.017395,0.0164795,0.0183105,0.0274658,-0.0308228,0.0491333,0.0372314
130,3,0.0256348,0.0296021,0.0592041,0.00244141,0.0308228,0.0250244,0.027771,0.0250244,0.0311279,0.0759888,-0.0253296,0.0231934,-0.0308228
130,4,-0.00366211,0.038147,0.0515747,0.020752,0.0167847,0.015564,0.0112915,0.0189209,0.0250244,0.0286865,-0.0170898,0.0250244,0.0466919
131,0,0.045166,0.0244141,0.0357056,0.0192261,0.00488281,0.0119019,0.00915527,0.0186157,0.0314331,0.0326538,-0.0445557,0.0308228,0.0308228
131,1,0.0408936,0.0296021,0.0326538,0.0256348,0.0234985,0.0146484,0.0100708,0.0204468,0.0149536,0.00518799,-0.0344849,0.0378418,0.0311279
131,2,0.0750732,0.0253296,0.0222778,0.00823975,0.00671387,0.0274658,-0.0088501,0.0262451,0.0201416,0.0262451,-0.020752,0.0265503,0.0244141
131,3,0.0354004,0.00488281,0.0436401,0.0238037,0.0357056,-0.0473022,0.0158691,0.0210571,-0.00671387,0.0332642,-0.0320435,0.0491333,0.038147
131,4,0.0344849,0.0344849,0.0341797,0.038147,0.0213623,0.0167847,0.010376,0.0378418,0.00915527,0.00457764,-0.0302124,0.0213623,-0.0201416
132,0,0.0360107,0.0442505,0.0610352,0.0253296,0.0219727,0.0189209,0.00762939,0.0354004,0.0143433,0.022583,-0.0317383,0.0436401,0.0177002
132,1,0.0350952,0.0390625,0.0378418,0.022583,0.0326538,0.0100708,0.0109863,0.00793457,0.00366211,0.0250244,-0.032959,0.0320435,0.0204468
132,2,0.0238037,0.0265503,-0.0201416,0.0387573,0.0320435,0.0283813,0.00305176,0.0363159,0.0177002,0.0253296,0.000610352,0.0323486,0.0363159
132,3,0.027771,0.0390625,-0.0338745,0.0228882,0.0238037,0.0265503,0.00457764,0.0164795,0.0131226,0.0134277,-0.0296021,0.0332642,0.039978
132,4,0.0393677,0.109558,0.00366211,0.0213623,0.0442505,-0.00274658,0.0158691,0.0341797,0.0250244,0.0283813,-0.0274658,0.0415039,0.027771
133,0,0.0344849,0.045166,0.0140381,-0.00732422,0.0213623,0.032959,0.0112915,0.0241089,0.0234985,0.0161743,-0.0357056,0.0283813,0.0308228
133,1,0.0183105,0.0170898,-0.00213623,0.078125,0.0192261,0.0308228,0.0671387,0.0106812,0.00854492,0.0549316,-0.0238037,0.0286865,0.0384521
133,2,0.0372314,0.0286865,0.0390625,0.0112915,0.0411987,0.00427246,0.0231934,0.0238037,0.0222778,0.0180054,-0.0735474,0.0170898,0.0259399
133,3,-0.0012207,0.0387573,0.0186157,0.0222778,0.0204468,0.0250244,0.00518799,0.0149536,0.0241089,0.0341797,-0.0308228,0.0357056,0.0454712
133,4,-0.0109863,0.0418091,0.0643921,0.00152588,0.0268555,-0.00427246,0.0216675,0.0302124,0.0256348,0.0396729,-0.0247192,0.0323486,0.0119019
134,0,0.0241089,0.0308228,0.0531006,0.0335693,0.0244141,0,0.00915527,0.0143433,0.0180054,0.0158691,-0.0296021,0.0274658,0.0463867
134,1,0.0216675,0.0390625,0.0680542,0.00274658,0.00854492,-0.0253296,0.0192261,0.0125122,0.0408936,0.0222778,-0.032959,0.0238037,0.0170898
134,2,0.022583,0.0311279,0.0167847,0.0299072,0.0280762,0.017395,0.0192261,0.0146484,0.0183105,0.0280762,-0.0201416,0.0296021,0.0317383
134,3,0.0268555,0.0186157,0.0393677,0.0408936,0.0262451,0.022583,0.0149536,0.0268555,0.00457764,0.0320435,-0.0311279,0.0375366,0.0234985
134,4,0.0177002,0.0350952,-0.00488281,0.0369263,0.0146484,0.0189209,0.0247192,0.0204468,0.0241089,0.0213623,-0.0265503,0.027771,0.0442505
135,0,0.0280762,0.0274658,0.0250244,0.107727,0.0274658,0.0112915,-0.000610352,0.0213623,0.012207,0.0390625,-0.0311279,0.0308228,0.0259399
135,1,0.0302124,0.0241089,0.0341797,0.0280762,-0.0170898,0.0274658,0.0222778,0.0338745,0.0216675,0.0238037,-0.00823975,0.0161743,0.0311279
135,2,0.0219727,0.043335,-0.0012207,0.0402832,0.00549316,0.0311279,0.0244141,0.0662231,0.0152588,0.0253296,-0.0375366,0.0250244,0.0274658
135,3,0.0210571,0.0286865,0.0299072,0.0421143,0.0323486,0.0128174,0.0189209,0.0131226,0.0146484,0.0457764,-0.03479,0.0335693,0.0408936
135,4,0.0201416,0.0354004,0.0247192,0.032959,0.0234985,0.0100708,0.0131226,0.0164795,0.0167847,0.0372314,-0.0299072,0.0137329,0.039978
136,0,0.0384521,0.03479,-0.0088501,0.0323486,0.015564,0.0210571,0.0131226,0.022583,0.0170898,0.0247192,-0.0396729,0.032959,0.0482178
136,1,0.038147,0.0317383,0.00305176,0.0259399,0.0262451,0.00823975,0.010376,0.0720215,0.0231934,0.0302124,-0.0259399,0.0384521,0.0161743
136,2,0.0109863,0.0616455,0.00427246,0.0109863,0.0180054,0.0250244,-0.00274658,0.0265503,0.0271606,0.0311279,-0.0192261,0.0363159,0.105286
136,3,0.0360107,0.0387573,-0.015564,0.0418091,0.0234985,0.0323486,0.0201416,0.0213623,0.0170898,0.0234985,-0.0262451,0.0378418,0.0311279
136,4,0.0430298,0.0274658,0.00579834,0.0640869,0.015564,0.0128174,0.0305176,0.0204468,0.0180054,0.00518799,-0.0216675,0.0201416,0.0137329
137,0,0.0311279,0.0219727,0.022583,0.0274658,0.0390625,0.0149536,0.012207,0.0228882,0.0219727,0.00854492,0.000305176,0.0439453,0.0286865
137,1,0.0189209,0.0552368,0.0289917,0.0411987,0.0338745,0.0259399,0.0167847,0.0106812,0.0131226,0.012207,-0.0228882,0.0253296,0.0296021
137,2,0.0375366,0.032959,0.0689697,0.0109863,0.0292969,0.0189209,0.015564,0.0170898,0.0338745,0.0247192,-0.0146484,0.0308228,0.0427246
137,3,0.0189209,0.00549316,0.000915527,0.0384521,0.0222778,0.0378418,0.0164795,0.0640869,0.0128174,0.0152588,-0.050354,0.0363159,0.0244141
137,4,0.0476074,0.0360107,0.0488281,0.0259399,0.0213623,0.0149536,0.0790405,0.015564,0.0262451,0.0540161,-0.0378418,0.0271606,0.0427246
138,0,0.0268555,0.017395,0.0958252,0.0369263,0.0201416,0.0189209,0.0256348,0.0088501,0.0460815,0.0296021,-0.0286865,0.0714111,0.0231934
138,1,0.0317383,0.0354004,0.0622559,0.038147,0.0186157,0.0222778,0.0183105,0.0115967,0.0738525,0.0222778,-0.0289917,0.0839233,0.022583
138,2,0.0253296,0.022583,0.0546265,0.0332642,0.0238037,0.0360107,0.0189209,0.0134277,-0.0143433,0.0274658,-0.032959,-0.0125122,0.0543213
138,3,0.0326538,0.0378418,0.0527954,0.0387573,0.0265503,0.00274658,0.0177002,0.0140381,-0.0274658,0.0149536,-0.0335693,-0.00396729,0.0332642
138,4,0.0473022,0.0387573,0.071106,0.0320435,0.0186157,0.022583,0.0137329,0.00640869,0.00793457,0.0216675,-0.0204468,0.0259399,0.0177002
139,0,0.0177002,0.027771,0.0515747,0.0521851,0.0210571,0.00274658,0.0265503,0.0088501,0.0238037,0.0186157,-0.0152588,0.0512695,0.0250244
139,1,0.0146484,0.0183105,0.0164795,0.032959,0.0289917,0.0259399,0.0323486,0.0177002,0.0170898,-0.0259399,-0.0289917,0.0338745,0.0250244
139,2,0.00488281,0.0234985,0.0317383,0.0369263,0.0137329,0.0186157,0.0128174,0.00549316,0.0183105,0.0106812,-0.0189209,0.022583,0.0311279
139,3,0.032959,0.0238037,0.0335693,0.0238037,0.0109863,0.0228882,-0.0350952,0.0140381,0.0280762,0.00915527,-0.022583,0.0341797,0.038147
139,4,0.0125122,0.0302124,0.022583,0.0421143,0.0216675,0.0259399,0.0210571,0.0119019,0.00946045,0.0167847,-0.0299072,0.0357056,0.0476074
140,0,0.0219727,0.0540161,0.000915527,0.039978,-0.00213623,0.0213623,0.00793457,0.0430298,0.0222778,0.0216675,-0.0213623,0.0241089,0.0268555
140,1,-0.00152588,0.039978,-0.00701904,0.0314331,0.0259399,-0.0112915,0.0180054,0.00152588,0.0549316,0.00305176,-0.027771,0.0378418,0.0323486
140,2,0.0241089,0.0332642,-0.00640869,-0.0189209,0.0344849,0.0317383,0.0222778,0.0106812,0.0115967,0.00915527,-0.0238037,0.0390625,0.0634766
140,3,0.0292969,0.0280762,-0.0543213,0.0320435,0.00549316,0.0189209,0.0177002,0.0213623,0.0506592,0.0219727,-0.0250244,0.0296021,0.015564
140,4,0.0323486,0.0357056,-0.00335693,0.0335693,0.0180054,0.0238037,-0.0152588,0.0143433,0.0274658,0.0219727,-0.0247192,0.0137329,0.0634766
141,0,0.0289917,0.0149536,0.0146484,0.0314331,0.0186157,0.0164795,-0.0411987,0.0149536,0.0250244,0.00915527,-0.0106812,0.0210571,0.0222778
141,1,0.0369263,0.0143433,0.0140381,0.0231934,-0.00732422,0.0292969,0.0799561,0.027771,0.0152588,0.0650024,-0.0192261,0.0305176,0.067749
141,2,-0.0106812,0.0247192,0.0396729,-0.00640869,0.0289917,0.0308228,-0.012207,0.0256348,0.0216675,-0.0366211,-0.0454712,0.0335693,-0.0100708
141,3,0.022583,0.0308228,0.0570679,0.0274658,0.0219727,0.00335693,0.0241089,0.0204468,-0.0378418,0.0192261,-0.0317383,-0.0109863,0.0387573
141,4,0.00457764,0.0494385,0.0692749,0.043335,0.0250244,0.0283813,0.0219727,-0.0106812,0.00396729,0.0198364,-0.038147,0.0344849,0.0466919
142,0,0.0231934,0.0350952,0.0289917,0.022583,0.038147,0.0393677,0.0100708,0.0134277,0.00549316,0.0491333,-0.0357056,0.0375366,0.0311279
142,1,0.0238037,-0.0088501,0.0817871,0.039978,-0.0183105,0.0314331,0.0152588,-0.038147,0.0241089,0.0112915,-0.0424194,0.0271606,0.0283813
142,2,0.0292969,0.0628662,0.057373,0.0326538,0.00244141,0.0454712,0.0152588,0.0250244,0.00152588,0.00274658,-0.027771,0.0250244,0.038147
142,3,0.0308228,-0.0152588,0.0726318,0.0341797,0.0314331,0.0292969,0.0308228,0.0238037,0.00610352,0.00976562,-0.0253296,0.0302124,0.0216675
142,4,0.0204468,0.0228882,0.0665283,0.0213623,0.0231934,0.0299072,0.0210571,0.00823975,0.0183105,0.00701904,-0.0262451,0.0222778,0.0421143
143,0,0.0222778,0.0271606,0.107727,0.0524902,0.027771,0.0653076,0.0219727,0.0247192,0.0152588,0.0247192,-0.0305176,0.0320435,0.0366211
143,1,0.0299072,0.0415039,0.0366211,0.0384521,0.0421143,0.0201416,0.0299072,0.0582886,0.00518799,0.00183105,-0.0283813,0.0259399,0.0143433
143,2,0.0238037,0.0418091,0.0271606,0.0274658,0.0198364,0.0265503,0.0186157,0.0128174,0.0115967,0.0378418,-0.0286865,-0.00152588,-0.0219727
143,3,0.027771,0.00640869,0.0445557,0.108032,0.0396729,0.0292969,-0.0219727,0.0262451,0.0106812,0.0292969,-0.0332642,0.0137329,0.0369263
143,4,0.0262451,0.0265503,0.0662231,0.0289917,0.0299072,0.0192261,0.0378418,0.0100708,0.0115967,0.038147,-0.0289917,0.0238037,0.00854492
144,0,0.0167847,0.0219727,0.0204468,0.0250244,0.0268555,0.0109863,0.0216675,0.0244141,0.0164795,0.0158691,-0.0198364,0.045166,0.0396729
144,1,0.0323486,0.00976562,-0.0119019,0.015564,0.0180054,0.0360107,0.0164795,0.0369263,0.00976562,0.020752,-0.0601196,0.0299072,0.0256348
144,2,0.0204468,0.0186157,-0.00976562,0.0250244,0.0378418,0.020752,0.0241089,0.0180054,0.00366211,0.0189209,-0.0170898,0.0637817,0.0460815
144,3,0.0167847,0.0531006,-0.00701904,0.0338745,0.0384521,0.0210571,-0.00244141,0.0152588,0.00701904,0.0341797,-0.0216675,0.00640869,0.0247192
144,4,0.0238037,0.012207,0.00366211,0.0253296,0.06073,0.0335693,0.0158691,0.0317383,0.0161743,0.0222778,-0.0149536,0.0115967,0.0320435
145,0,0.0234985,0.0106812,-0.0604248,0.0332642,0.0378418,0.0265503,0.00976562,0.0112915,0.0149536,0.0146484,-0.0195312,0.0253296,0.0430298
145,1,0.022583,0.0268555,0.00213623,0.0238037,0.0146484,0.0219727,0.00671387,0.00549316,0.00549316,0.0598145,-0.020752,0.0231934,-0.0177002
145,2,0.00823975,0.0283813,0.0396729,0.0552368,0.0332642,0.0216675,0.0308228,0.0265503,0.0192261,0.0216675,-0.0219727,0.0109863,0.0189209
145,3,0.0210571,0.0271606,0.0299072,0.0228882,0.017395,0.0354004,0.0149536,0.00915527,0.017395,0.0271606,-0.0140381,-0.0192261,0.0250244
145,4,0.0265503,0.0515747,0.0387573,0.022583,0.0524902,0.0418091,0.0216675,0.00976562,0.0100708,0.012207,-0.0256348,0.0250244,0.0369263
146,0,0.0817871,0.0296021,0.0469971,0.0149536,0.0274658,0.038147,0.000610352,0.0274658,0.0152588,0.0219727,-0.0268555,0.0268555,0.0360107
146,1,0.020752,0.015564,0.0567627,0.0314331,0.0146484,0.00579834,0.0119019,0.0210571,0.00396729,-0.000915527,-0.0344849,0.0860596,0.0256348
146,2,0.0613403,0.0314331,0.0897217,0.0695801,0.0289917,0.0280762,0.0628662,0.0292969,0.0189209,-0.0128174,-0.0012207,0.0204468,-0.000305176
146,3,0.0247192,0.0256348,0.0628662,0.0402832,0.0314331,0.0231934,0.0357056,0.0161743,0.0228882,-0.00762939,-0.0619507,0.0146484,0.0357056
146,4,0.0210571,0.0256348,0.0878906,0.0534058,0.0613403,0.0466919,0.0146484,0.0494385,0.0137329,0.0259399,0.0112915,0.0100708,0.0088501
147,0,0.0195312,0.0286865,0.0476074,0.0357056,0.0411987,0.0405884,0.0210571,0.0836182,0.0253296,0.0161743,0.0115967,0.0128174,0.0259399
147,1,0.0170898,0.0494385,0.0128174,0.0360107,0.0619507,0.0289917,0.0372314,-0.0320435,0.0131226,0.0268555,-0.0164795,0.0259399,0.00488281
147,2,-0.0201416,0.0119019,0.00732422,-0.0201416,0.0231934,0.0253296,0.0314331,0.0372314,0.0274658,0.010376,-0.0180054,0.0222778,0.0262451
147,3,0.00396729,0.0115967,0.0216675,0.0299072,0.0253296,0.0491333,0.0250244,0.00396729,0.0613403,0.0170898,-0.0256348,0.0183105,0.0384521
147,4,0.0143433,0.0228882,0.0115967,0.0469971,0.0369263,0.0305176,0.0189209,0.0164795,0.0158691,-0.0231934,-0.0186157,0.0222778,0.0662231
148,0,0.0183105,0.0183105,0.00640869,0.0457764,0.0244141,0.0289917,0.0247192,0.0241089,0.0271606,0.00457764,-0.0296021,0.0405884,0.015564
148,1,-0.0140381,0.0183105,0.00396729,0.0842285,0.0344849,0.0210571,-0.0335693,0.0244141,0.0149536,0.0564575,-0.0180054,0.0241089,0.0244141
148,2,0.057373,0.0192261,-0.0137329,-0.0100708,0.0408936,0.0292969,0.0378418,0.0335693,0.00457764,0.00762939,-0.022583,0.0231934,0.0302124
148,3,0.0204468,-0.0311279,-0.0192261,0.0357056,0.0787354,0.00488281,0.0299072,0.0219727,0.0161743,0.00640869,-0.0192261,0.0131226,0.0271606
148,4,0.00823975,0.0125122,-0.00946045,0.0366211,0.0387573,0.00793457,0.03479,0.0354004,0.0808716,0.0228882,-0.0180054,0.0460815,0.0265503
149,0,0.0146484,0.0219727,0.00244141,0.0265503,0.0357056,0.0244141,0.0262451,0.0299072,0.0164795,0.0350952,-0.0320435,0.0314331,0.0317383
149,1,0.0128174,0.00976562,0.0152588,0.0296021,0.0317383,0.00915527,0.0262451,0.032959,0.03479,0.0119019,-0.0216675,0.0259399,0.0369263
149,2,-0.0119019,0.0204468,0.0259399,0.0360107,0.0256348,0.0271606,0.0280762,0.0210571,0.0228882,0.0201416,-0.0115967,0.020752,-0.0170898
149,3,0.010376,0.0259399,0.0485229,0.0338745,0.0405884,0.0253296,0.038147,0.0167847,0.0228882,0.0253296,-0.0167847,0.0189209,0.00152588
149,4,0.0100708,-0.0228882,0.0198364,0.0308228,-0.0256348,0.0256348,0.0366211,0.00793457,0.0247192,-0.00274658,-0.0286865,0.0283813,0.00488281
150,0,-0.0146484,0.00366211,0.0378418,0.0247192,0.0442505,0.0106812,0.0411987,-0.0186157,0.0228882,0.0088501,-0.000915527,0.0247192,0.0234985
150,1,0.0134277,0.00671387,0.078125,-0.000915527,0.0338745,0.0424194,0.0292969,0.010376,0.0177002,0.0152588,-0.0167847,0.0213623,0.0274658
150,2,0.0158691,0.0830078,0.0564575,0.0375366,0.0631714,0.0286865,0.0357056,0.017395,0.0305176,0.00579834,-0.0161743,0.0158691,0.0152588
150,3,-0.00183105,0.0204468,0.0509644,0.0164795,0.0289917,0.0234985,0.0418091,0.00946045,0.0186157,0.0109863,-0.0222778,0.050354,0.0357056
150,4,0.0238037,0.0195312,0.0338745,0.0946045,0.03479,0.0192261,0.0701904,0.0146484,0.0149536,0.0244141,-0.0283813,0.0213623,0.0299072
151,0,0.0106812,0.0335693,0.00976562,0.0494385,0.045166,0.0375366,0.0305176,0.00762939,0.0335693,0.0109863,-0.00183105,0.0198364,0.0259399
151,1,0.0650024,0.00915527,0.0283813,0.0561523,0.0195312,0.0314331,0.0204468,0.0271606,0.0222778,0.0210571,-0.0204468,0.0296021,0.020752
151,2,0.0170898,0.00579834,0.0332642,0.0469971,0.0250244,0.00579834,0.0228882,0.0125122,0.0192261,0.00823975,-0.00793457,0.00366211,0.0268555
151,3,0.0262451,0.010376,0.0106812,0.0387573,0.0357056,0.0296021,0.0134277,0.0128174,0.0244141,0.00823975,-0.022583,0.0167847,0.0234985
151,4,0.0244141,0.0341797,0.000610352,0.0183105,0.0210571,0.0326538,0.0228882,0.0204468,-0.00427246,0.027771,-0.0216675,-0.0256348,0.039978
152,0,0.0186157,0.0198364,0.0485229,0.0524902,0.0262451,0.0143433,0.0466919,0.0158691,0.00305176,0.0143433,-0.0250244,0.00335693,0.0302124
152,1,0.0201416,0.0241089,-0.0262451,0.0427246,0.010376,0.0344849,0.0402832,-0.0143433,0.0106812,0.00610352,-0.0286865,0.0119019,0.0314331
152,2,0.00823975,0.0216675,-0.0219727,0.0213623,0.0335693,0.0241089,0.0384521,0.0204468,0.0192261,0.0360107,-0.0274658,0.0088501,0.0100708
152,3,0.0201416,0.0167847,-0.0302124,0.0360107,0.0308228,0.0192261,0.0549316,0.0292969,0.0378418,-0.0384521,-0.0250244,0.0405884,0.0247192
152,4,0.0192261,0.0280762,-0.00976562,0.0552368,0.0317383,0.0198364,0.0280762,-0.00457764,0.0219727,0.012207,-0.00152588,0.0192261,0.0198364
153,0,0.010376,0.0561523,-0.0241089,0.0369263,-0.017395,0.0354004,0.0482178,0.0274658,0.0195312,-0.00152588,-0.00976562,0.00518799,0.0161743
153,1,0.0201416,0.0323486,0.012207,0.0308228,0.0354004,0.0338745,0.0323486,0.0253296,0.00946045,0.0192261,-0.0247192,0.00915527,0.0180054
153,2,0.00915527,-0.0088501,0.0393677,0.045166,0.0350952,0.0454712,0.0308228,0.00976562,0.0326538,0.022583,-0.0302124,0.0183105,0.0213623
153,3,0.0192261,0.0201416,0.0256348,0.0222778,0.0308228,-0.0421143,0.0402832,0.0189209,0.0213623,0.00152588,-0.0189209,0.0128174,-0.00366211
153,4,0.0283813,0.0814819,0.0500488,0.0338745,0.0460815,0.0302124,0.0357056,-0.0476074,0.00366211,0.010376,-0.0216675,-0.00152588,0.0265503
154,0,0.0299072,0.00579834,0.0244141,0.0253296,0.0210571,0.0323486,0.0323486,0.0152588,0.0198364,0.0128174,-0.00671387,0.00396729,0.0106812
154,1,-0.0436401,0.00427246,0.0491333,0.00793457,0.0421143,0.0268555,0.0570679,0.0271606,0.0213623,0.00946045,-0.0231934,0.00183105,0.0143433
154,2,0.017395,0.012207,0.0662231,0.0323486,0.0213623,0.0280762,0.0112915,0.0335693,0.0088501,0.00396729,-0.0189209,0.00579834,0.0088501
154,3,0.0283813,0.0164795,0.0546265,0.0213623,0.0274658,0.0292969,0.0393677,0.0158691,0.0177002,0.0131226,0.0140381,0.0131226,0.0161743
154,4,0.0204468,0.0115967,0.057373,0.0265503,0.0448608,0.03479,0.0253296,0.0186157,0.0140381,0.0357056,-0.020752,0.0170898,0.0335693
155,0,0.032959,0.0360107,0.0415039,0.0259399,0.0210571,0.0280762,0.0323486,0.0164795,0.0167847,0.0247192,-0.0164795,-0.00701904,0.027771
155,1,-0.0390625,0.0012207,0.0442505,0.0296021,0.0274658,0.0149536,0.0326538,0.0326538,0.0140381,0.00305176,-0.0241089,0.0262451,0.017395
155,2,0.010376,0.00488281,0.0335693,0.043335,0.0308228,0.0244141,-0.0112915,0.0302124,0.0134277,-0.015564,-0.0152588,0.0161743,0.0796509
155,3,0.0299072,-0.00183105,0.0216675,0.043335,0.0238037,0.0372314,0.038147,0.0265503,0.00396729,0.0125122,-0.0268555,0.0234985,0.0180054
155,4,0.0637817,0.00244141,0.0283813,0.0396729,0.0332642,-0.0161743,0.0259399,0.039978,0.0439453,0.00762939,-0.0143433,0.0668335,0.00915527
156,0,0.0143433,0.0405884,-0.0164795,0.0344849,0.0360107,0.0332642,0.0302124,0.0323486,0.0161743,0.0143433,-0.012207,0.0247192,0.0088501
156,1,0.0149536,0.00274658,-0.0286865,0.0158691,0.03479,0.0357056,0.0326538,0.015564,-0.0198364,0.0180054,-0.0189209,0.0683594,0.017395
156,2,0.0177002,0.0134277,0.00701904,0.0646973,0.0317383,0.0296021,-0.0308228,0.0286865,0.017395,-0.00396729,0.0268555,0.0119019,0.0616455
156,3,0.017395,0.00823975,0.00488281,0.0286865,0.0350952,0.0262451,0.0466919,0.0170898,0.0289917,0.0137329,-0.0210571,-0.00244141,0.0112915
156,4,0.0100708,0.00152588,-0.00244141,0.0350952,0.0564575,0.0289917,0.0436401,0.0366211,0.0244141,0.0299072,-0.0189209,0.0201416,0.0534058
157,0,-0.00488281,0.010376,-0.0238037,0.0564575,0.022583,0.0411987,0.0271606,0.0430298,0.0167847,0.0131226,-0.0222778,0.00213623,0.00823975
157,1,0.0189209,0.0170898,0.0234985,0.0494385,0.0488281,-0.000915527,0.0305176,0.0335693,0.0262451,0.0180054,-0.0558472,0.0140381,0.00518799
157,2,0.0219727,0.0259399,-0.000610352,0.0415039,0.0259399,-0.015564,0.0415039,0.0216675,0.0488281,0.0219727,-0.0167847,-0.0143433,0.0112915
157,3,0.0296021,0.0210571,0.0378418,0.0326538,0.00305176,0.0320435,0.0201416,0.043335,0.0238037,0.0344849,-0.0140381,0.00335693,0.0265503
157,4,0.0283813,0.0204468,0.000305176,0.039978,0.0283813,0.0289917,0.0491333,0.0302124,0.0149536,0.010376,-0.022583,0.0372314,0.0143433
158,0,0.0631714,0.0256348,0.0463867,0.0628662,0.0317383,0.0332642,0.0396729,0.0390625,0.0296021,0.0216675,-0.0805664,0.017395,0.0152588
158,1,0.0360107,0.00457764,0.0531006,0.0418091,0.0213623,0.0357056,0.0201416,0.0253296,0.0317383,0.0341797,-0.0189209,0.0241089,0.0262451
158,2,0.0161743,0.0234985,0.0549316,0.0592041,0.045166,0.0253296,0.0408936,0.032959,0.0372314,0.0177002,-0.0250244,0.0131226,0.0128174
158,3,0,0.00976562,0.0512695,0.0616455,0.0143433,0.0231934,0.0259399,0.0338745,0.0286865,0.0909424,-0.0265503,0.0186157,0.0524902
158,4,0.032959,0.0134277,0.0460815,0.0167847,0.0210571,0.0317383,0.0167847,0.0244141,0.0305176,-0.0125122,-0.027771,0.0192261,0.0137329
159,0,0.00762939,0.0231934,0.0317383,0.0585938,0.0326538,0.0314331,0.0332642,0.0238037,0.0350952,0.0491333,-0.0286865,0.0238037,0.0180054
159,1,0.0421143,0.0112915,0.0411987,0.0354004,0.0283813,-0.012207,0.0366211,0.0357056,-0.0363159,0.0488281,-0.0286865,-0.0222778,0.0274658
159,2,0.0274658,0.0128174,0.00823975,-0.0149536,0.0204468,0.0198364,0.0350952,0.0238037,0.0311279,0.0198364,-0.0292969,0.0231934,-0.00701904
159,3,0.020752,0.0213623,-0.0418091,0.0305176,0.00213623,0.0265503,0.0201416,0.0195312,0.0238037,0.0512695,-0.0213623,0.0012207,0.0286865
159,4,0.0289917,0.0112915,-0.012207,0.0546265,0.0247192,0.00640869,0.0283813,0.0259399,0.0228882,0.0326538,-0.0222778,-0.00366211,0.0244141
160,0,0.0146484,0.0698853,0.0314331,0.0271606,0.0283813,0.0146484,0.0311279,0.0350952,0.0308228,0.0582886,-0.0228882,-0.0012207,-0.00152588
160,1,0.0119019,0.0201416,-0.0088501,0.032959,-0.0314331,0.0299072,0.0286865,0.0112915,0.0305176,0.0704956,-0.00335693,0.00671387,0.00579834
160,2,-0.00244141,-0.0378418,-0.0164795,0.017395,0.0274658,0.043335,0.0634766,0.0250244,0.0323486,0.050354,-0.0241089,0.00732422,0.0231934
160,3,0.0180054,0.0241089,-0.0119019,0.0259399,0.0286865,0.0259399,0.0393677,0.0375366,0.0222778,0.038147,-0.0326538,0.00793457,0.0219727
160,4,0.0195312,-0.0222778,0.00762939,0.012207,0.0653076,0.027771,0.022583,0.0769043,0.0378418,0.055542,-0.0302124,0.0332642,0.0363159
161,0,0.0424194,0.0234985,-0.0238037,-0.0149536,0.0256348,0.0631714,0.0314331,0.0177002,0.0311279,0.0616455,-0.0210571,0.00793457,0.0338745
161,1,0.0201416,0.0204468,0.0112915,0.00427246,0.0125122,0.0415039,-0.0268555,0.0244141,0.032959,0.0762939,-0.0222778,0.0164795,0.0244141
161,2,0.0119019,0.0317383,0.00976562,-0.017395,0.0430298,0.0180054,0.0302124,0.0283813,0.0170898,0.0588989,-0.0128174,0.0363159,0.00946045
161,3,0.0332642,0.0686646,0.0259399,0.00671387,-0.0253296,0.0119019,0.0195312,0.0698853,0.0518799,0.0473022,-0.0158691,0.0106812,0.0210571
161,4,0.0476074,0.0323486,0.0112915,0.0088501,0.0231934,0.015564,0.0289917,0.0250244,0.0390625,0.0421143,-0.0314331,0.0195312,0.0289917
162,0,0.0238037,-0.0411987,0.0286865,0.00305176,0.0360107,0.0314331,0.0296021,0.0317383,0.032959,0.038147,-0.0250244,0.0302124,0.0100708
162,1,0.000915527,0.0323486,0.0421143,0.0119019,0.017395,0.0247192,0.0283813,0.0408936,0.0418091,0.00640869,-0.0311279,0.015564,-0.00335693
162,2,0.0231934,0.0152588,0.0692749,0.00976562,0.0204468,0.0244141,0.0369263,0.0314331,0.0314331,0.0408936,-0.022583,0.0146484,0.0234985
162,3,0.020752,0.00915527,0.015564,-0.00671387,0.0201416,0.0396729,0.0210571,0.0177002,0.0375366,0.0384521,-0.0222778,0.00671387,0.00854492
162,4,0.0192261,0.0195312,0.0717163,-0.0106812,0.020752,0.0234985,0.0344849,0.0335693,0.022583,0.0335693,-0.017395,0.0109863,0.0448608
163,0,0.0259399,0.0265503,0.0500488,-0.0012207,0.0131226,0.00457764,0.0216675,0.0271606,0.0372314,0.0256348,-0.0241089,0.00762939,0.0219727
163,1,0.0296021,-0.00366211,0.0250244,-0.0088501,0.0308228,0.027771,0.0317383,0.0360107,0.0283813,0.0378418,-0.0354004,0.0402832,0.0216675
163,2,-0.00396729,-0.0439453,0.0216675,-0.00396729,0.0119019,0.0137329,0.0265503,0.0271606,0.0280762,0.0204468,-0.027771,0.0268555,0.032959
163,3,0.0250244,0.0134277,-0.0131226,-0.00244141,0.0250244,0.0341797,0.0546265,0.0180054,0.0283813,0.0234985,-0.0259399,0.0241089,0.0296021
163,4,0.0296021,-0.0204468,0.00701904,-0.0134277,0.0234985,0.0500488,0.0180054,0.03479,-0.0137329,0.022583,-0.0265503,-0.015564,0.0289917
164,0,0.0222778,0.0167847,0.00671387,-0.00427246,0.00976562,0.0314331,0.0210571,0.0228882,0.038147,0.0231934,-0.0253296,0.0219727,0.0137329
164,1,0.0161743,0.0161743,-0.00976562,-0.0143433,0.0234985,0.0247192,0.0317383,0.0415039,0.0326538,0.0210571,0.00732422,0.0222778,-0.00366211
164,2,0.0222778,0.00793457,-0.0326538,-0.00640869,0.015564,0.0341797,0.0357056,0.0479126,0.038147,0.0219727,-0.0195312,-0.00518799,0.0198364
164,3,0.0411987,0.0177002,-0.012207,-0.027771,0.010376,0.0250244,0.0183105,0.00671387,0.0354004,0.0286865,-0.0518799,0.00732422,0.0131226
164,4,0.0213623,0.022583,-0.0115967,-0.0192261,0.017395,0.0216675,0.0415039,0.0421143,0.0283813,0.0265503,-0.0289917,0.00549316,0.00915527
165,0,0.0592041,0.0228882,0.00793457,-0.0164795,0.0125122,0.0338745,0.0265503,0.0363159,0.0140381,0.0268555,-0.0631714,0.0231934,0.0195312
165,1,0.0341797,0.0115967,-0.00946045,-0.0137329,0.0469971,0.0268555,0.0106812,0.027771,0.0952148,0.0244141,-0.0183105,0.0308228,0.0244141
165,2,0.0271606,0.0189209,0.000305176,-0.045166,0.0183105,0.0170898,0.0320435,0.032959,0.0299072,0.0198364,-0.0256348,0.022583,0.00915527
165,3,0.020752,0.0274658,0.00823975,-0.0134277,0.0238037,0.0906372,0.0222778,0.0326538,-0.0256348,0.0115967,-0.0323486,0.043335,0.00396729
165,4,0.0256348,0.0250244,0.0302124,-0.00305176,0.0299072,0.0137329,0.0247192,0.0393677,0.0198364,0.0204468,-0.0509644,0.00976562,0.0170898
166,0,0.0286865,0.00518799,0.0274658,0.0457764,0.0341797,0.010376,-0.0317383,0.0192261,0.0286865,0.0241089,-0.027771,0.0161743,0.0186157
166,1,0.0195312,0.0106812,0.0704956,-0.0100708,0.0204468,0.00762939,0.0308228,0.0582886,0.0299072,0.010376,-0.00610352,0.0149536,0.0183105
166,2,0.0228882,0.0265503,0.12207,0.0100708,0.0119019,0.0375366,0.0189209,0.0418091,-0.0491333,0.0216675,-0.0128174,0.0512695,0.020752
166,3,0.0189209,0.027771,0.0491333,0.00976562,0.00396729,-0.00518799,0.0140381,0.0387573,0.0125122,0.0112915,-0.032959,0.0262451,0.0234985
166,4,0.0305176,0.0268555,0.03479,0.0143433,0.0167847,0.0213623,0.00732422,0.0247192,0.0344849,0.0247192,-0.0350952,0.0338745,0.010376
167,0,0.0152588,0.0192261,0.0296021,-0.012207,0.0161743,0.0540161,0.0250244,0.0250244,0.045166,0.0115967,-0.0286865,0.0128174,0.0115967
167,1,0.0238037,0.0167847,0.0332642,0.0210571,0.0299072,0.0241089,0.010376,0.0177002,-0.000915527,0.0219727,-0.0326538,-0.0387573,0.0286865
167,2,0.0286865,0.0250244,0.017395,0.000610352,0.0131226,-0.00518799,0.039978,0.0274658,0.0106812,0.0143433,-0.0250244,-0.0100708,0.0244141
167,3,0.0280762,0.0292969,-0.00488281,0.012207,0.0170898,0.0515747,0.0268555,0.0387573,0.0146484,0.0128174,-0.0280762,0.0213623,0.0195312
167,4,0.0170898,0.00640869,0.0170898,0.0183105,-0.00244141,0.0311279,0.0534058,0.0408936,0.0250244,0.0585938,-0.0283813,0.0265503,0.017395
168,0,0.00274658,0.0534058,0.00396729,-0.00823975,0.0662231,0.0280762,0.0561523,0.0637817,0.0256348,0.022583,-0.022583,0.0366211,0.0149536
168,1,0.0387573,0.0140381,-0.00946045,0.0146484,0.0128174,0.0170898,0.0482178,0.0219727,0.020752,0.0344849,-0.0204468,0.0204468,0.0164795
168,2,0.015564,0.0195312,-0.020752,0.00274658,0.0280762,0.027771,0.0643921,0.0213623,0.0292969,0.0479126,-0.0354004,0.0247192,0.0274658
168,3,0.0283813,0.0369263,0.0012207,-0.0540161,0.0292969,0.0250244,0.0457764,0.0244141,0.0344849,0.0299072,-0.0375366,0.0204468,0.0302124
168,4,0.0891113,0.0469971,-0.000915527,-0.055542,0.0189209,0.0280762,0.0473022,0.0308228,0.0314331,0.0167847,-0.0405884,0.0228882,0.0299072
169,0,0.0244141,0.0405884,-0.0088501,0.00244141,-0.00152588,0.0186157,0.0271606,0.0317383,0.0366211,0.0161743,-0.020752,0.0125122,0.00518799
169,1,0.0234985,0.0241089,0.00579834,0.0265503,0.0201416,0.0137329,0.043335,0.0332642,0.0143433,-0.0180054,-0.0393677,0.0344849,0.0927734
169,2,0.0341797,0.0396729,-0.0158691,-0.00244141,0.0161743,0.0283813,0.0332642,0.0262451,0.0289917,0.0375366,-0.0265503,0.0210571,0.0234985
169,3,0.0259399,0.0125122,0.00946045,0.00701904,0.0234985,0.0454712,0.0231934,0.0259399,0.038147,0.0186157,-0.0234985,0.0274658,0.0238037
169,4,0.0357056,-0.0247192,0.0408936,0.00518799,0.0552368,0.0378418,0.0299072,0.0320435,0.0161743,0.0213623,-0.0332642,0.0204468,0.017395
170,0,0.00915527,0.0234985,0.0527954,0.0247192,0.0143433,0.022583,0.0387573,0.0241089,0.00854492,0.00915527,-0.0268555,0.0231934,0.0286865
170,1,0.0296021,0.0210571,0.0479126,-0.00976562,-0.00335693,0.0247192,0.043335,0.0250244,0.027771,0.00762939,-0.0259399,0.0231934,0.0439453
170,2,0.0216675,0.0344849,0.0543213,-0.000915527,0.0146484,0.0180054,0.0479126,0.0164795,0.0241089,0.0198364,-0.0283813,0.0344849,0.0299072
170,3,0.0357056,0.0222778,0.0360107,0.0134277,0.0125122,0.0115967,0.0299072,0.0247192,0.0253296,0.0244141,-0.0311279,0.0161743,0.0146484
170,4,0.0704956,0.0305176,0.0415039,0.0567627,0.0192261,0.0164795,-0.0363159,0.0170898,0.0247192,0.0750732,-0.0601196,0.0259399,0.0228882
171,0,0.0296021,0.0631714,0.032959,0.000305176,0.0177002,0.0180054,0.0228882,0.00823975,0.0256348,0.0326538,-0.0265503,0.0268555,0.0152588
171,1,0.0250244,0.0311279,0.0286865,0.00610352,0.012207,0.022583,0.0247192,0.0222778,0.0393677,0.0259399,-0.0299072,0,0.0201416
171,2,0.0283813,0.0738525,0.0405884,0.0296021,-0.00305176,0.0253296,0.0158691,0.0314331,0.022583,0.0137329,-0.039978,0.0378418,0.0234985
171,3,0.0250244,0.0280762,0.0378418,0.000915527,0.0299072,0.0274658,0.0244141,0.0341797,0.0378418,0.0473022,-0.03479,0.0286865,0.0253296
171,4,0.0772095,0.0286865,0.0427246,-0.0442505,0.0234985,0.0115967,0.0280762,0.0265503,0.0509644,0.0192261,-0.0296021,0.0390625,0.020752
172,0,0.0244141,0.0234985,0.0396729,0.00762939,0.022583,0.0119019,0.0119019,0.0125122,0.0296021,-0.0146484,-0.0265503,0.0268555,-0.0201416
172,1,0.027771,0.0378418,0.0305176,0.00946045,-0.00183105,0.0115967,0.0292969,0.0210571,0.0363159,0.0411987,-0.0482178,0.0253296,0.0128174
172,2,0.027771,0.0286865,0.0302124,0.0119019,0.00640869,-0.0259399,0.0292969,0.032959,-0.00274658,0.0222778,-0.0418091,0.0366211,0.012207
172,3,0.043335,0.0274658,0.0482178,0.0201416,0.0134277,0.0177002,0.0143433,0.0216675,0.0146484,0.0244141,-0.0280762,0.0244141,0.0259399
172,4,0.0332642,0.0183105,0.039978,0.0686646,0.0119019,0.000915527,0.050354,0.0286865,0.0250244,0.0393677,-0.0466919,0.0274658,0.0289917
173,0,0.0231934,0.0326538,-0.00915527,0.00518799,0.00305176,0.00946045,-0.0195312,0.0161743,0.0167847,0.0765991,-0.0268555,0.0415039,0.0305176
173,1,0.0512695,0.0268555,0.00213623,-0.050354,0.0140381,0.0189209,0.0137329,0.0109863,0.0354004,0.0991821,-0.0369263,0.0265503,0.0756836
173,2,0.0262451,0.0289917,0.00732422,-0.00457764,0.0106812,-0.057373,0.00701904,0.0210571,0.0769043,0.032959,-0.0271606,0.0567627,0.020752
173,3,0.0491333,0.0323486,0.0332642,0.00457764,-0.0527954,0.0131226,0.0131226,0.017395,0.0234985,0.0332642,-0.00701904,0.0320435,0.0262451
173,4,0.0393677,0.0296021,0.0460815,-0.00457764,0.0119019,0.0158691,0.0131226,0.0137329,0.0195312,0.0668335,-0.0314331,0.0439453,0.0213623
174,0,0.0314331,0.0143433,0.0402832,0.0112915,0.0131226,-0.000915527,0.010376,0.0119019,0.0268555,0.0387573,-0.0411987,0.0421143,0.0274658
