Devices
1000
,,Myon - Voltage,,,,,,,,,,,,,
Frame,Sub Frame,GC-M,TA,SOL,VM,VL,RF,BF,ST,GLUT-M,EO,Gracilis,GC-L,Semimembranosus
,,V,V,V,V,V,V,V,V,V,V,V,V,V
1,0,0.0247192,0,0.0228882,0.0192261,0.00671387,0.0317383,0.0390625,0.0344849,0.027771,0.0250244,-0.0317383,0.0119019,0.0283813
1,1,0.0222778,0.0140381,0.00732422,-0.00366211,0.0247192,0.0134277,0.0222778,0.0299072,0.0189209,0.0396729,-0.0234985,0.0244141,0.0143433
1,2,-0.00396729,0.0167847,0.0115967,-0.0137329,0.0302124,0.0411987,0.0537109,0.03479,0.0186157,0.0112915,-0.0302124,0.00915527,0.0201416
1,3,0.0198364,-0.00396729,0.010376,-0.000610352,0.0164795,0.0274658,0.0366211,0.0332642,0.0198364,0.0204468,-0.0219727,-0.00823975,0.0180054
1,4,0.0131226,0.00518799,0.0253296,0.0280762,0.0134277,0.0524902,0.0415039,0.0238037,0.0396729,0.0244141,-0.0149536,0.022583,0.00274658
2,0,0.0146484,0.0222778,0.0170898,0.00518799,0.0204468,0.0390625,0.0271606,0.0408936,0.0271606,0.0189209,-0.0186157,0.0265503,0.00793457
2,1,0.0234985,0.0152588,0.0170898,0.00946045,-0.0344849,0.0375366,0.0289917,0.0228882,0.0238037,0.0274658,-0.000915527,-0.00213623,0.0268555
2,2,-0.00762939,-0.0369263,0.0088501,0.0183105,0.0253296,0.0219727,0.0308228,0.0448608,0.0292969,0.0280762,-0.0289917,0.0192261,0.0259399
2,3,0.020752,0.0241089,0.0198364,0.0164795,0.020752,0.057373,0.0363159,0.0271606,0.0241089,0.0387573,-0.0271606,0.0265503,0.0247192
2,4,0.017395,-0.0671387,0.039978,0.0152588,0.0442505,0.0131226,0.0283813,0.0469971,0.03479,0.0366211,-0.0256348,0.0256348,0.0198364
3,0,0.0323486,0.0167847,0.0390625,0.0164795,0.0219727,-0.0241089,0.0350952,0.0323486,0.0360107,0.0326538,-0.0378418,0.0219727,0.00427246
3,1,0.00396729,0.0167847,0.0280762,0.0186157,0.0256348,0.0357056,0.0323486,0.0189209,0.0363159,0.0280762,-0.0180054,0.0250244,0.03479
3,2,0.0402832,0.0167847,0.0119019,-0.00457764,0.0128174,0.0234985,0.0469971,0.0280762,0.0311279,0.0241089,-0.0256348,0.0311279,-0.0238037
3,3,0.0332642,0.0619507,0.0195312,0.0344849,-0.0369263,0.0183105,0.0274658,0.0820923,0.0323486,0.0320435,-0.0198364,0.0213623,0.0146484
3,4,0.0128174,0.0259399,0.0115967,0.0119019,0.0283813,0.0512695,0.0317383,0.0302124,0.0323486,0.0253296,-0.0180054,0.0128174,0.0250244
4,0,0.0228882,-0.0137329,0.00946045,-0.00152588,0.0256348,0.0411987,0.0466919,0.0170898,0.0244141,0.0393677,-0.0210571,0.0250244,0.00854492
4,1,0.010376,0.0222778,0.0189209,0.00274658,0.0128174,0.0140381,0.00732422,0.0283813,0.0274658,-0.0152588,-0.0372314,0.0158691,-0.00396729
4,2,0.0161743,0.017395,0.0372314,0.00518799,0.0177002,0.0271606,0.0296021,0.0280762,0.00488281,0.0216675,-0.0326538,0.0140381,0.0213623
4,3,0.0256348,0.00579834,0.0234985,-0.0112915,0.00549316,0.0320435,0.020752,0.0613403,0.0250244,0.0363159,-0.0289917,0.0280762,0.0134277
4,4,0.027771,0.0228882,0.0375366,-0.027771,0.0170898,0.017395,0.043335,0.0250244,0.0299072,0.0408936,-0.0222778,0.0140381,-0.0305176
5,0,0.0283813,0.022583,0.0213623,-0.00427246,0.0183105,0.0289917,0.0335693,0.0259399,0.0405884,0.0231934,-0.027771,0.0115967,0.0137329
5,1,0.0234985,0.0186157,0.00549316,0.00396729,0.0259399,0.0411987,0.0323486,0.0250244,0.0302124,0.0274658,-0.0231934,0.0216675,0.0201416
5,2,0.0183105,-0.00427246,0.022583,0.0012207,0.0369263,0.0271606,0.0341797,0.0241089,0.0524902,0.0369263,-0.0201416,0.0219727,0.0256348
5,3,0.0228882,0.0119019,0.0213623,0.00762939,0.0119019,0.0210571,0.055542,0.0158691,0.0390625,0.0241089,-0.0338745,0.0189209,0.015564
5,4,0.0112915,0.0115967,0.00305176,0.00518799,0.020752,0.0338745,0.0231934,0.0442505,0.00915527,0.0201416,-0.03479,-0.0384521,0.0183105
6,0,0.0228882,0.0292969,0.0439453,0.00427246,0.0201416,0.0244141,0.027771,0.0418091,0.0402832,0.0341797,-0.0369263,0.0289917,0.0152588
6,1,0.0119019,0.03479,0.0152588,0.0164795,-0.00762939,0.0231934,0.0299072,0.015564,0.0326538,0.0219727,-0.0537109,-0.00152588,0.0149536
6,2,0.0543213,0.015564,0.0283813,0.00488281,0.0134277,0.0280762,0.0384521,0.0332642,0.0241089,0.0308228,-0.0326538,0.0210571,0.0189209
6,3,0.010376,0.0140381,0.0192261,0.0177002,0.0106812,0.0271606,0.0323486,0.0228882,0.0238037,0.0323486,0.00518799,0.0247192,0.0161743
6,4,0.0192261,0.00732422,0.0393677,0.0112915,0.0415039,0.0302124,0.0296021,0.00488281,0.0332642,0.022583,-0.0311279,0.0219727,0.0177002
7,0,0.0457764,0.00183105,0.0204468,0.057373,0.0216675,0.0250244,0.00610352,0.027771,0.0360107,0.0259399,-0.0192261,0.0219727,0.0177002
7,1,0.0177002,0.0204468,0.0314331,0.0161743,0.00549316,0.0137329,0.0283813,0.0299072,0.0280762,0.0283813,-0.0296021,0.0567627,0.010376
7,2,0.0180054,0.017395,0.00762939,0.00946045,0.0231934,0.0320435,0.0271606,0.022583,0.0311279,0.0299072,-0.0314331,0.0183105,0.0112915
7,3,0.0234985,0.0192261,0.0286865,0.0265503,0.0283813,0.022583,0.0250244,0.027771,0.0088501,0.0256348,-0.0289917,0.0811768,0.0164795
7,4,-0.0384521,0.0167847,0.00610352,0.0250244,0.0164795,0.00518799,0.0308228,0.0280762,0.0479126,0.0125122,-0.0689697,0.0384521,0.0201416
8,0,0.0320435,0.00152588,0.0140381,0.0180054,0.0183105,0.0192261,-0.0247192,0.0344849,0.0305176,0.0384521,-0.0357056,0.0204468,0.0131226
8,1,0.0161743,0.0317383,0.0177002,0.0238037,0.00335693,0.0167847,0.0320435,0.0637817,0.0296021,0.0411987,0.0088501,0.0244141,0.0280762
8,2,0.015564,0.0299072,0.0241089,0.0112915,0.0219727,0.0552368,0.0335693,0.0344849,-0.0189209,0.0296021,-0.0296021,0.0296021,0.0149536
8,3,0.0106812,0.0231934,0.0210571,0.0177002,0.0344849,0.0170898,0.0259399,0.0228882,0.0448608,0.0299072,-0.0164795,0.015564,0.00976562
8,4,0.0265503,0.0167847,0.0299072,0.00915527,0.0131226,0.0222778,0.0238037,0.0109863,0.0350952,0.00335693,-0.0323486,0.055542,0.0408936
9,0,0.0320435,0.0198364,0.0238037,0.0152588,0.0259399,0.0216675,0.0198364,0.0296021,0.101318,0.0186157,-0.03479,0.0299072,0.010376
9,1,0.00457764,0.00305176,0.0253296,0.0106812,0.0274658,0.0299072,0.0360107,0.00732422,0.039978,0.0289917,-0.0274658,0.0115967,0.0137329
9,2,0.0238037,0.0228882,0.0250244,0.0119019,0.012207,0.0354004,0.0161743,0.0244141,0.0396729,0.0387573,-0.0357056,0.0390625,0.0140381
9,3,0.0378418,0.00183105,0.0213623,0.0158691,0.0244141,0.00823975,0.0201416,0.0149536,0.0167847,0.0268555,-0.0134277,0.0250244,0.0231934
9,4,0.039978,0.0167847,0.0216675,0.00640869,0.00976562,0.00732422,0.0204468,0.0405884,0.0317383,0.0927734,-0.0265503,0.0286865,0.0222778
10,0,0.0354004,0.0201416,-0.00671387,0.017395,0.0814819,0.0323486,0.0177002,0.0793457,0.0280762,0.0128174,-0.0360107,0.0332642,0.0384521
10,1,0.0341797,0.0109863,0.0299072,0.0283813,0.039978,0.0247192,0.0137329,0.0326538,0.0280762,0.00976562,-0.0463867,0.0289917,0.000915527
10,2,0.0302124,0.0177002,0.0274658,0.022583,0.0167847,0.0143433,-0.0186157,0.0204468,0.0350952,0.0134277,-0.0296021,0.0183105,-0.0253296
10,3,0.0344849,0.0112915,0.0418091,-0.0231934,0.0170898,0.0219727,0.0323486,0.0198364,0.0204468,0.0231934,-0.0213623,0.0265503,0.0396729
10,4,0.0430298,-0.00823975,0.0335693,0.0933838,0.0286865,0.0259399,-0.0247192,0.0201416,0.0305176,0.0302124,-0.0222778,-0.000305176,0.0253296
11,0,0.0354004,0.03479,0.0180054,0.0140381,0.0283813,0.00457764,0.0320435,0.0335693,0.0289917,0.0308228,-0.022583,0.0213623,0.0274658
11,1,0.0323486,0.0253296,0.020752,0.0231934,0.0180054,0.0186157,0.015564,0.0201416,0.0244141,0.010376,-0.0311279,0.0219727,0.0405884
11,2,0.0308228,0.0286865,0.0106812,0.0198364,-0.0390625,0.0152588,0.0216675,0.0250244,0.0289917,0.0363159,-0.0378418,0.022583,0.0234985
11,3,0.0305176,0.0250244,0.0250244,0.0350952,0.0241089,0.0201416,0.0106812,0.0308228,0.0289917,0.0418091,-0.0424194,-0.015564,0.0256348
11,4,0.0131226,0.0296021,0.0137329,0.0109863,-0.0296021,0.012207,0.0497437,0.101318,0.0506592,0.0430298,-0.0418091,0.0393677,0.0146484
12,0,0.0268555,0.0299072,0.0292969,0.0222778,0.022583,0.0164795,0.0170898,0.0204468,0.0289917,0.0415039,-0.0274658,0.022583,0.0448608
12,1,0.0308228,0.0234985,0.0610352,0.0213623,0.0375366,0.0219727,0.00976562,0.0186157,0.0387573,0.0228882,-0.0308228,0.0341797,-0.0119019
12,2,0.0631714,0.038147,0.0241089,-0.00305176,0.038147,0.0238037,0.0244141,0.0384521,0.0302124,0.0283813,-0.0271606,0.022583,0.0210571
12,3,0.0262451,-0.0491333,0.0259399,0.0177002,0.0457764,0.00610352,0.0259399,0.00457764,0.0311279,0.0213623,-0.0314331,0.0137329,0.0402832
12,4,0.0247192,0.0192261,0.0238037,0.0128174,0.0213623,0.0158691,0.0408936,0.0186157,0.03479,0.0167847,-0.0296021,0.0323486,0.0436401
13,0,0.0210571,0.0305176,0.0192261,0.0164795,0.083313,0.0128174,0.0213623,-0.020752,0.0222778,0.0231934,-0.0369263,0.0296021,0.0271606
13,1,0.0366211,0.0634766,0.0216675,0.0250244,0.0244141,0.0192261,0.00213623,0.0164795,0.0405884,0.0448608,-0.0415039,-0.00732422,0.0341797
13,2,0.0357056,0.0241089,0.0149536,0.00793457,-0.00854492,0.022583,0.0216675,0.0390625,0.0177002,0.0405884,-0.0387573,0.0161743,0.0253296
13,3,0.0238037,0.0320435,0.0213623,0.00488281,0.0234985,0.012207,0.0180054,0.0241089,0.0189209,0.0402832,-0.0421143,0.0222778,0.0189209
13,4,0.0283813,0.022583,0.0250244,0.00610352,0.017395,0.0201416,-0.0521851,0.0250244,0.0259399,-0.00305176,-0.0271606,0.0387573,0.0332642
14,0,0.0299072,0.017395,0.0601196,0.0228882,0.0183105,0.00244141,0.022583,0.0262451,0.0411987,0.0357056,-0.039978,0.0256348,-0.0250244
14,1,0.038147,0.00579834,0.0201416,0.0289917,0.0164795,0.020752,0.0357056,0.0183105,0.0177002,0.0247192,-0.0296021,0.0323486,0.0271606
14,2,0.0268555,0.0323486,0.0338745,0.0595093,0.0268555,0.0195312,0.0128174,0.0195312,0.0204468,0.0335693,-0.0204468,0.0216675,0.0280762
14,3,0.0335693,0.0198364,0.0558472,0.0146484,0.0238037,0.0421143,0.0231934,0.0299072,0.022583,0.0320435,-0.03479,0.0238037,-0.00183105
14,4,0.0302124,0.0198364,0.0170898,0.0326538,0.0369263,0.0100708,0.00640869,0.0253296,0.0253296,0.00213623,-0.0396729,0.032959,0.0250244
15,0,0.0360107,0.0216675,0.0216675,0.0283813,0.00671387,0.0183105,0.00640869,0.0244141,0.0283813,0.0357056,-0.0402832,0.0247192,-0.0189209
15,1,0.0250244,0.0213623,0.0149536,0.0396729,0.0143433,0.0469971,0.0253296,0.0170898,0.0317383,0.00640869,-0.03479,0.0338745,0.00793457
15,2,0.0289917,0.0500488,0.0366211,0.0387573,-0.00457764,0.0286865,0.0140381,0.0213623,0.0128174,0.0228882,-0.0317383,0.0115967,0.0390625
15,3,0.0372314,0.0143433,0.0219727,0.0216675,0.0234985,0.0369263,0.00915527,0.0125122,0.0256348,0.0393677,-0.0170898,0.032959,0.0274658
15,4,0.0378418,0.0332642,-0.000915527,0.0268555,0.0314331,0.0378418,0.0167847,0.0167847,0.0177002,0.0256348,-0.0366211,0.0299072,0.0357056
16,0,-0.0305176,0.0527954,0.00640869,0.0570679,0.000305176,0.027771,-0.0323486,0.0167847,0.0317383,0.0219727,-0.0427246,0.0109863,0.0744629
16,1,0.0125122,0.0244141,0.0299072,0.0186157,0.0262451,-0.0012207,0.0265503,0.0265503,0.0216675,0.0244141,-0.03479,0.0360107,0.0228882
16,2,0.0265503,0.0256348,0.0253296,0.0115967,0.0201416,0.0534058,0.0161743,0.0265503,-0.00366211,0.0341797,-0.0317383,0.0387573,0.0372314
16,3,0.0253296,0.045166,0.0250244,0.0161743,0.0259399,0.0216675,0.0579834,0.0201416,0.0256348,-0.0265503,-0.0253296,0.0238037,0.0338745
16,4,0.0534058,0.0292969,0.0271606,0.0299072,0.0119019,0.0149536,0.020752,0.0375366,0.0213623,0.020752,-0.0112915,0.0292969,0.0350952
17,0,0.0311279,0.0305176,0.0390625,0.0341797,0.0250244,-0.0326538,0.0195312,0.0228882,0.0357056,0.0341797,-0.0323486,0.0549316,0.0189209
17,1,0.0546265,0.0357056,0.0164795,0.0372314,0.0296021,0.015564,0.0219727,0.0192261,0.0152588,0.0231934,-0.0610352,0.0512695,0.0262451
17,2,0.0445557,0.0308228,0.0189209,0.0161743,0.0683594,0.0296021,0.0146484,0.0314331,0.0372314,0.0415039,-0.0546265,0.0363159,0.0210571
17,3,0.0442505,0.0158691,0.0222778,-0.017395,0.0271606,0.0216675,0.0244141,0.0152588,0.0219727,0.0463867,-0.0411987,0.0283813,0.015564
17,4,0.032959,0.032959,0.027771,0.0280762,0.0280762,0.0308228,0.0115967,0.0137329,0.0152588,0.00701904,-0.0335693,0.0494385,0.039978
18,0,0.0299072,0.0222778,0.0680542,0.0219727,0.0228882,0.0201416,0.0280762,0.0152588,0.015564,0.0256348,-0.050354,0.0268555,0.0427246
18,1,0.0228882,0.0274658,0.0296021,0.0192261,0.015564,0.0689697,0.0244141,0.0143433,0.0448608,0.0567627,-0.0296021,0.0338745,0.0186157
18,2,0.0427246,0.022583,0.0292969,0.0302124,0.0299072,0.0219727,0.0308228,0.00854492,0.00793457,-0.00549316,-0.0299072,0.0442505,-0.0204468
18,3,0.0314331,0.0415039,0.0332642,0.0476074,0.0262451,0.027771,0.017395,0.0109863,0.0244141,0.0161743,-0.0506592,0.0219727,0.0216675
18,4,0.0415039,0.0161743,0.0271606,0.0363159,0.0210571,0.017395,0.0308228,0.0119019,0.0250244,0.012207,-0.038147,0.00152588,0.0439453
19,0,0.0265503,0.0213623,0.0515747,0.0439453,0.0204468,0.015564,0.0219727,0.012207,0.0012207,0.0231934,-0.0259399,0.0354004,0.0158691
19,1,0.0497437,0.0305176,0.0317383,0.0442505,0.0112915,0.0598145,0.0289917,0.00366211,0.0692749,0.0204468,-0.0143433,0.0408936,0.0335693
19,2,0.0311279,0.0320435,0.0311279,0.0357056,0.0143433,0.0335693,0.0338745,0.0140381,0.0286865,0.0283813,-0.0360107,0.0372314,0.0274658
19,3,0.0308228,0.0186157,0.0256348,0.0384521,0.0891113,0.0335693,0.0219727,0.0631714,0.00701904,0.0189209,-0.0256348,0.03479,0.0308228
19,4,0.039978,0.0375366,0.0204468,0.0195312,0.0387573,0.022583,0.0146484,0.0167847,0.00762939,0.0234985,-0.0311279,0.0198364,0.0402832
20,0,0.0405884,0.0140381,0.0259399,0.0137329,0.0283813,0.0125122,0.00854492,0.0689697,0.0271606,0.0314331,-0.0497437,0.0195312,0.0228882
20,1,0.0390625,0.0341797,0.0314331,0.010376,0.0247192,0.0201416,0.0119019,0.0161743,0.0311279,0.0100708,-0.032959,0.0234985,0.043335
20,2,0.0183105,0.0387573,0.0268555,0.0195312,0.0143433,0.0195312,0.0326538,0.0323486,0.0189209,0.015564,-0.0109863,0.0259399,0.0247192
20,3,0.0271606,0.0485229,0.0250244,0.0393677,0.0280762,0.0210571,0.0195312,0.0216675,0.0177002,0.00793457,-0.0323486,0.0869751,0.0378418
20,4,0.0363159,0.0299072,0.0622559,0.0247192,0.0222778,0.0268555,0.0195312,0.0143433,0.0109863,0.0244141,-0.0219727,0.015564,-0.0106812
21,0,0.0323486,0.0375366,0.0378418,0.00335693,0.0289917,0.0283813,0.0238037,0.0198364,0.0234985,0.012207,-0.0430298,0.027771,0.0396729
21,1,0.0231934,0.0286865,0.0265503,0.0320435,0.0320435,0.0198364,0.00427246,-0.0012207,0.00640869,0.0189209,-0.0274658,0.027771,0.0262451
21,2,0.0292969,0.0430298,0.0137329,0.0234985,0.0445557,-0.00793457,0.0674438,0.00854492,0.0323486,0.0238037,-0.0354004,0.0161743,0.0378418
21,3,0.0344849,0.0454712,0.00762939,0.0247192,0.0167847,0.000305176,0.0210571,0.0106812,0.0177002,0.0302124,-0.027771,0.0378418,0.0299072
21,4,0.032959,0.0393677,0.00976562,0.0497437,0.0152588,0.0201416,0.0125122,0.0198364,0.0198364,0.0424194,-0.0372314,0.0231934,0.045166
22,0,0.0500488,0.0411987,0.0268555,0.0344849,0.0201416,0.0344849,0.0164795,0.0119019,0.0198364,0.0335693,-0.0427246,0.0146484,0.0354004
22,1,0.0192261,0.0311279,0.0247192,0.0482178,0.0164795,0.0305176,0.0128174,0.00488281,0.0384521,0.0372314,-0.00946045,-0.0198364,0.0378418
22,2,0.0390625,0.0396729,0.0213623,0.0256348,0.0247192,-0.0137329,0.0204468,0.0177002,0.0119019,0.0250244,-0.0296021,0.0445557,0.0335693
22,3,0.022583,0.0335693,0.0790405,0.0436401,0.0213623,0.0735474,0.012207,0.00976562,0.0604248,0.0238037,-0.0286865,0.0195312,0.0357056
22,4,0.0256348,0.0411987,0.0244141,0.0192261,0.0177002,0.0164795,0.00671387,-0.00366211,0.0280762,0.0250244,-0.0256348,0.0305176,0.027771
23,0,0.0448608,0.0311279,0.0152588,0.0445557,-0.0189209,0.00732422,0.0109863,-0.0479126,0.0274658,0.0204468,-0.0354004,0.0262451,0.022583
23,1,0.0180054,0.0253296,0.0131226,0.0332642,0.0280762,0.0158691,0.0161743,0.0210571,0.0268555,0.03479,-0.045166,0.0305176,0.0595093
23,2,0.0198364,0.0656128,0.0152588,0.0299072,0.0430298,0.0180054,0.0268555,0.0213623,0.022583,0.0247192,-0.0271606,0.0369263,0.0369263
23,3,0.0222778,0.0427246,0.0323486,0.0216675,0.0268555,0.0222778,0.022583,0.00793457,0.022583,0.0265503,-0.0332642,0.03479,0.0244141
23,4,0.0662231,0.0332642,0.0241089,0.0686646,0.0247192,0.0112915,0.0119019,0.0137329,0.0170898,0.0296021,-0.0787354,0.0320435,0.0469971
24,0,0.03479,0.0274658,0.0320435,0.0305176,0.03479,0.0222778,-0.00549316,0.0192261,0.0244141,0.0143433,-0.027771,0.0274658,0.0473022
24,1,0.0900269,0.0335693,0.0241089,-0.0109863,0.0259399,0.0247192,0.0390625,0.0125122,0.0198364,0.0247192,-0.0408936,0.0265503,0.0308228
24,2,0.0302124,0.0341797,0.0466919,0.0186157,0.0326538,0.00701904,0.0241089,0.0253296,0.0241089,0.0378418,-0.0296021,0.0289917,0.0195312
24,3,0.0958252,0.0509644,0.0341797,-0.0421143,0.0241089,0.015564,0.0332642,0.00671387,0.0131226,0.0616455,-0.038147,0.017395,0.0445557
24,4,0.0210571,0.043335,0.0238037,0.0427246,0.0866699,0.0222778,0.0180054,0.0384521,0.017395,0.032959,-0.0393677,0.0338745,0.038147
25,0,0.0326538,0.0375366,0.0274658,0.0289917,0.0357056,-0.0366211,0.0253296,0.0149536,0.0289917,0.027771,-0.032959,0.0299072,0.0460815
25,1,0.032959,0.0238037,0.0473022,0.0241089,0.0323486,0.00183105,0.00610352,0.015564,0.0274658,0.0250244,-0.0344849,-0.0238037,0.045166
25,2,-0.015564,0.00946045,0.017395,-0.00244141,0.0296021,0.0238037,0.0296021,0.0271606,0.0216675,0.0247192,-0.0393677,0.0183105,0.0350952
25,3,0.0192261,0.0387573,0.0341797,0.0119019,0.0137329,0.0201416,0.00396729,0.00671387,0.0231934,0.0537109,-0.0320435,0.0274658,0.0930786
25,4,0.0335693,0.0311279,0.0396729,0.0567627,0.0198364,0.0308228,0.0210571,0.0213623,-0.00762939,0.0299072,-0.0344849,0.0338745,0.043335
26,0,0.0195312,0.0320435,0.0369263,0.0360107,0.0183105,0.0164795,0.00671387,0.00518799,0.0088501,0.00823975,-0.0149536,0.0839233,0.0570679
26,1,0.0189209,0.0253296,0.0259399,0.0158691,0.0189209,0.0265503,0.0238037,0.00915527,0.0195312,0.0198364,-0.0247192,0.0262451,0.0268555
26,2,0.0262451,0.010376,0.0280762,0.0222778,0.00732422,0.0308228,0.0189209,0.0131226,0.0158691,0.0106812,-0.0231934,0,0.0314331
26,3,0.0280762,0.00305176,0.0335693,0.0497437,-0.0100708,0.0210571,0.0350952,0.0186157,0.00518799,0.00640869,-0.0149536,0.0292969,0.0296021
26,4,0.0280762,0.0247192,0.0244141,0.038147,0.032959,0.032959,0.0201416,0.0143433,0.0170898,0.0161743,-0.027771,0.0335693,0.0463867
27,0,0.0289917,0.0286865,0.0100708,0.0372314,0.0289917,0.0189209,0.0195312,0.0146484,0.0158691,0.012207,-0.0286865,0.0476074,0.0314331
27,1,-0.0338745,0.0167847,0.0170898,-0.00183105,0.0302124,0.0152588,0.0231934,0.017395,0.00366211,0.0170898,-0.0149536,0.0213623,0.022583
27,2,0.0286865,0.0244141,0.0244141,0.0271606,0.022583,0.0308228,0.0112915,0.0357056,0.0317383,0.00915527,-0.0241089,0.0271606,0.010376
27,3,0.0344849,0.0180054,0.0250244,0.0253296,0.0445557,0.0296021,0.0231934,0.0253296,0.00335693,0.0115967,-0.0338745,0.0387573,0.0228882
27,4,0.015564,0.0289917,0.0210571,0.0512695,0.0338745,0.0219727,0.0561523,0.00823975,0.0152588,0.0268555,-0.0311279,0.0360107,0.0375366
28,0,0.0259399,0.0280762,0.0408936,0.0314331,0.027771,0.0119019,0.00274658,0.0210571,0.0317383,0.0350952,-0.0222778,0.0274658,-0.0280762
28,1,0.0259399,0.0134277,0.0323486,0.0183105,-0.0100708,0.0256348,0.0259399,0.0210571,0.00335693,-0.0216675,-0.00946045,0.0234985,-0.00946045
28,2,0.0372314,0.0247192,0.0320435,0.0198364,0.0405884,0.0241089,0.027771,0.0158691,0.0125122,-0.0112915,-0.0238037,0.0210571,0.0558472
28,3,0.0204468,0.0238037,0.010376,0.022583,0.0201416,0.0396729,0.0192261,0.0088501,0.00762939,0.0271606,-0.0238037,0.0299072,0.0274658
28,4,0.0177002,0.0396729,0.0466919,0.0311279,0.0360107,0.027771,0.0238037,0.0238037,0.0213623,0.0115967,-0.0180054,0.0222778,0.0125122
29,0,0.0308228,0.032959,0.0241089,0.00671387,0.0201416,0.0152588,0.000305176,0.0250244,0.0131226,0.0183105,-0.017395,0.0222778,0.0198364
29,1,0.0274658,-0.0161743,0.0552368,0.017395,0.0210571,0.0234985,0.0253296,0.0115967,0.0427246,0.0280762,-0.0152588,0.0375366,0.0216675
29,2,0.0222778,0.0244141,0.0286865,0.0247192,-0.0210571,0.0247192,0.0219727,-0.0244141,0.0137329,0.0170898,-0.00579834,0.0192261,0.0292969
29,3,0.0265503,0.0317383,0.0228882,0.012207,0.0204468,0.0369263,0.0115967,0.0177002,0.00732422,0.0375366,-0.0161743,0.0317383,0.0479126
29,4,0.0115967,0.0274658,0.043335,0.0210571,0.0332642,0.0921631,0.0250244,0.0161743,-0.012207,0.0204468,-0.0140381,0.0146484,0.0369263
30,0,0.0369263,0.0244141,0.0482178,0.0292969,0.03479,0.0357056,0.0335693,0.00335693,0.0125122,0.0491333,-0.0167847,-0.000915527,0.0332642
30,1,0.0201416,0.0216675,0.0283813,0.0341797,0.0888062,0.0479126,0.0204468,0.0314331,0.0106812,-0.022583,-0.0198364,0.0238037,0.0448608
30,2,0.0100708,0.0311279,0.0274658,0.0396729,0.0228882,0.027771,0.0201416,0.0134277,0.0250244,-0.00823975,-0.0189209,0.0161743,0.0335693
30,3,0.00732422,0.0418091,0.0305176,0.0390625,0.00823975,0.0335693,0.0204468,0.00823975,0.0149536,0.00762939,-0.0259399,0.0341797,0.0238037
30,4,0.0296021,0.0402832,0.0283813,0.0326538,0.0286865,0.0219727,0.022583,0.0723267,0.0109863,0.0241089,-0.0396729,0.0274658,0.0128174
31,0,0.0177002,0.0393677,0.0308228,0.0323486,0.0146484,0.0402832,0.015564,0.038147,0.0201416,0.0161743,0.0100708,0.020752,0.0326538
31,1,0.0247192,0.022583,0.03479,0.0378418,0.0274658,0.0274658,0.017395,0.0378418,0.0180054,0.0119019,-0.0408936,0.020752,0.0259399
31,2,0.0201416,0.0332642,0.0488281,0.039978,0.022583,0.0234985,0.0143433,0.0234985,0.0186157,0.0183105,-0.020752,0.0213623,0.00396729
31,3,0.0180054,0.0360107,0.043335,0.0418091,0.0363159,0.0488281,0.0335693,0.0109863,0.0210571,-0.0189209,-0.0244141,-0.0198364,0.0405884
31,4,0.0598145,0.0186157,0.0259399,-0.00213623,0.0259399,0.0259399,-0.0332642,0.0234985,0.0183105,-0.0424194,-0.0140381,0.0265503,0.0204468
32,0,0.027771,0.0186157,0.0238037,0.0323486,0.0305176,0.0311279,0.0219727,0.00946045,0.0149536,0.0180054,-0.0198364,0.0149536,0.0332642
32,1,0.0262451,0.0180054,0.0408936,0.0195312,0.015564,0.0320435,0.0241089,0.0222778,0.00762939,0.00854492,-0.0183105,-0.0454712,0.0177002
32,2,0.00823975,0.0344849,0.0317383,0.0250244,0.0195312,0.0817871,0.0234985,0.0186157,0.0350952,0.0268555,-0.0238037,0.0204468,0.0262451
32,3,0.0238037,0.0119019,0.0119019,0.032959,0.0360107,0.0274658,0.0231934,0.00823975,0.0256348,0.00793457,-0.017395,0.0125122,0.0213623
32,4,0.0204468,0.0308228,0.0259399,0.0177002,0.0387573,0.0326538,0.00549316,0.0170898,0.0125122,0.00610352,-0.0238037,0.0231934,0.03479
33,0,0.0244141,0.0250244,0.0396729,0.0131226,0.0372314,0.0335693,0.0378418,0.0167847,0.0283813,0.0265503,-0.0253296,0.0338745,0.0289917
33,1,0.017395,0.0265503,0.0231934,0.0268555,0.0387573,0.0262451,-0.0152588,0.03479,0.0183105,0.0183105,-0.0180054,0.0219727,0.0274658
33,2,0.0195312,0.00732422,0.0262451,0.0234985,0.0576782,0.00701904,0.0259399,0.0924683,0.020752,0.0152588,-0.00793457,0.0332642,0.0259399
33,3,0.0585938,0.0204468,0.0375366,-0.0286865,0.0320435,0.0314331,0.0604248,0.0244141,0.00549316,-0.0280762,-0.0149536,0.0189209,0.0427246
33,4,0.0253296,0.0299072,0.0463867,0.0167847,0.0268555,0.0228882,0.0305176,0.0283813,0.00274658,0.017395,-0.0158691,0.0427246,0.0372314
34,0,0.0259399,0.0537109,0.0213623,0.0402832,0.0424194,0.0219727,0.0152588,0.0192261,0.0143433,0.0231934,-0.00854492,0.0280762,0.0219727
34,1,0.00549316,0.032959,-0.032959,0.0234985,0.0308228,0.0439453,0.010376,0.012207,0.00579834,0.00976562,-0.0128174,0.0125122,0.0387573
34,2,-0.020752,0.0274658,0.0213623,0.0592041,0.0222778,0.0436401,0.0189209,0.0268555,0.017395,0.0216675,-0.0170898,0.0137329,0.0219727
34,3,0.0219727,0.0247192,0.0430298,0.0289917,0.0308228,0.0219727,0.0152588,0.0012207,0.0164795,0.0222778,-0.00762939,-0.0253296,0.0274658
34,4,0.0210571,0.0164795,0.027771,-0.0161743,0.0439453,0.0378418,0.0775146,0.0100708,0.0317383,0.0177002,-0.0183105,0.0283813,0.0296021
35,0,0.0759888,0.0302124,0.0305176,0.0375366,0.0427246,0.0515747,0.022583,0.0134277,0.000610352,0.0183105,-0.00854492,0.0088501,0.0131226
35,1,0.038147,0.0177002,0.0280762,0.0320435,0.0231934,0.0326538,0.0836182,0.0234985,0.022583,0.0192261,-0.00213623,0.0198364,-0.0311279
35,2,0.0238037,0.0265503,0.0320435,0.0320435,0.0302124,0.0317383,0.0262451,0.0323486,0.0238037,-0.00762939,-0.0170898,0.0216675,0.0289917
35,3,0.0283813,0.0332642,0.0430298,0.0201416,0.0344849,0.0265503,0.0363159,0.0222778,0.0430298,0.0125122,-0.00946045,0.050354,0.0265503
35,4,0.0271606,0.0335693,0.0222778,0.0335693,0.0100708,0.0305176,0.0302124,0.0357056,0.0149536,0.0286865,-0.0100708,0.0222778,0.0164795
36,0,0.0210571,0.020752,0.0219727,0.0375366,0.0286865,0.0286865,0.0299072,0.0378418,0.0216675,0.0415039,-0.0247192,0.0149536,0.0210571
36,1,0.022583,0.0271606,0.0292969,0.0222778,0.0378418,0.0512695,0.0228882,0.015564,0.0268555,0.00518799,-0.015564,0.0149536,0.0183105
36,2,0.0396729,-0.032959,0.027771,0.0201416,-0.0161743,0.0366211,0.0341797,0.0411987,0.0143433,0.0149536,-0.0146484,0.0265503,0.0274658
36,3,0.0183105,0.0189209,0.0350952,0.0314331,0.0317383,0.0296021,0.0268555,0.0256348,-0.0411987,0.0222778,-0.0164795,0.0189209,0.0119019
36,4,0.0344849,0.0256348,0.0253296,0.0244141,0.0280762,0.0134277,0.0241089,0.0280762,0.027771,0.0195312,-0.0210571,0.0405884,0.00976562
37,0,0.012207,0.027771,0.00335693,0.0183105,0.0234985,0.032959,0.0299072,0.0268555,0.017395,0.00152588,-0.0204468,0.0100708,0.0180054
37,1,0.0189209,0.0244141,0.022583,0.0360107,0.0311279,0.0317383,0.0234985,0.0201416,0.017395,0.00732422,-0.0106812,0.0119019,0.00457764
37,2,0.0292969,0.0149536,0.0195312,0.0247192,0.0366211,0.0271606,0.0366211,0.015564,0.0244141,-0.0234985,-0.0326538,0.0286865,0.0106812
37,3,-0.015564,0.0134277,0.0308228,0.0552368,0.0408936,0.0439453,0.0296021,0.0357056,0.0106812,0.0152588,-0.0213623,0.0204468,0.0219727
37,4,0.00671387,0.00915527,-0.0158691,0.03479,0.0360107,0.0494385,0.0360107,0.0350952,0.0286865,0.00762939,-0.0119019,0.0167847,-0.00854492
38,0,0.0149536,-0.0283813,0.0234985,0.0527954,0.0357056,0.0350952,0.0238037,0.0128174,0.0274658,0.0119019,-0.0125122,0.00671387,0.0164795
38,1,0.0292969,0.0204468,0.0259399,0.0228882,0.0418091,0.0332642,0.0320435,-0.0131226,0.0259399,0.0238037,-0.0445557,0.0100708,0.017395
38,2,0.0146484,0.0125122,0.015564,0.0442505,0.0415039,0.0366211,0.0259399,0.0238037,-0.010376,0.0149536,-0.0253296,0.0564575,0.0213623
38,3,0.022583,0.0366211,0.03479,0.0344849,0.038147,0.0198364,0.043335,0.00549316,0.0234985,0.012207,-0.027771,0.0134277,0.0140381
38,4,0.0119019,0.00701904,0.0283813,0.0521851,0.0183105,0.0411987,0.0219727,0.0857544,0.0195312,-0.00610352,-0.0170898,0.0146484,0.0268555
39,0,0.0012207,0.0115967,-0.000610352,0.0405884,0.0454712,0.0473022,0.0234985,0.0204468,0.0521851,0.0146484,-0.0238037,0.0268555,-0.0186157
39,1,0.0180054,0.0177002,0.0167847,0.0393677,0.0228882,0.0222778,0.0674438,0.0280762,0.0201416,0.0161743,-0.0137329,0.0128174,0.0192261
39,2,0.0201416,0.0180054,-0.00854492,0.032959,0.0338745,-0.0430298,0.0473022,0.0262451,0.0231934,-0.00549316,-0.0238037,0.0177002,0.0170898
39,3,0.0140381,0.0161743,0.0189209,0.0375366,0.038147,0.0582886,0.03479,0.0375366,0.0280762,0.0161743,-0.0140381,0.0320435,0.020752
39,4,0.022583,0.0161743,0.0216675,0.0372314,0.0601196,0.0430298,0.0445557,0.027771,0.0296021,0.00457764,-0.0161743,0.0106812,0.0189209
40,0,0.00396729,0.0170898,0.010376,0.0250244,0.0259399,0.0418091,0.0201416,0.0836182,0.0265503,0.0158691,-0.0228882,0.0186157,0.0152588
40,1,0.0137329,0.0177002,0.0354004,0.0405884,0.0363159,0.0387573,0.0311279,0.0219727,0.0299072,0.00335693,-0.015564,-0.000305176,0.0231934
40,2,-0.00762939,0.0219727,0.0238037,0.0177002,0.050354,0.0274658,0.0384521,0.0415039,0.0180054,-0.00244141,-0.015564,0.0125122,0.00213623
40,3,0.0228882,0.00640869,0.0186157,-0.00854492,0.0308228,0.020752,0.0167847,0.0338745,0.0259399,0.0305176,-0.0430298,0.00854492,0.0167847
40,4,0.00457764,-0.0357056,0.0161743,0.015564,0.0369263,0.0396729,0.0299072,0.0198364,0.0210571,0.0213623,-0.0195312,0.00183105,0.0088501
41,0,0.00457764,0.0247192,0.0244141,0.0164795,0.0314331,0.0296021,0.0256348,0.0344849,0.0234985,0.0100708,-0.020752,0.0109863,0.012207
41,1,0.0143433,0.0219727,0.0158691,0.0241089,0.0128174,0.0332642,0.0250244,0.0231934,0.0305176,0.0088501,-0.0189209,0.0268555,0.0137329
41,2,0.0137329,0.0125122,0.0131226,0.0964355,0.0402832,0.0387573,0.0692749,0.0430298,0.0357056,-0.012207,-0.0186157,-0.0131226,0.0198364
41,3,0.0088501,0.0289917,-0.0445557,0.0283813,0.0445557,0.0167847,0.0326538,0.0119019,0.0241089,0.0186157,-0.0012207,0.0109863,0.0228882
41,4,0.0338745,0.0131226,0.0192261,0.00335693,0.0320435,0.027771,0.072937,0.0274658,0.0314331,-0.00549316,-0.0192261,0.0119019,-0.020752
42,0,0.0216675,0.0143433,0.017395,0.0415039,0.0323486,0.0332642,0.0408936,0.0219727,0.0195312,0.0146484,-0.0222778,0.0305176,0.0115967
42,1,0.0106812,0.0234985,0.0158691,0.0244141,0.0253296,0.0186157,0.0247192,0.0238037,0.0323486,0.0741577,-0.0427246,0.0213623,-0.045166
42,2,-0.00946045,0.0131226,0.0128174,0.0299072,0.0271606,0.0289917,0.0402832,0.0390625,0.0204468,-0.00152588,-0.0192261,0.00915527,0.0134277
42,3,0.0128174,-0.00762939,0.0125122,0.0204468,0.0592041,0.0332642,0.0357056,0.0320435,0.0415039,0.00701904,-0.022583,0.00366211,0.017395
42,4,0.017395,0.0177002,0.0192261,0.0341797,0.0289917,0.00701904,0.0375366,0.0415039,0.0259399,0.0149536,-0.0296021,0.0180054,0.015564
43,0,0.071106,0.0274658,0.0332642,0.0369263,0.0247192,0.0231934,0.0253296,0.0326538,0.0256348,-0.00305176,-0.0476074,0.0112915,0.00366211
43,1,0.0180054,0.0250244,0.0131226,0.0228882,0.0259399,-0.0241089,0.0332642,0.0198364,0.0378418,0.010376,-0.0253296,0.0405884,0.0195312
43,2,0.0125122,0.0125122,0.012207,0.0341797,0.0341797,0.0231934,0.0311279,0.0177002,0.0363159,0.0250244,-0.0256348,0.0158691,0.00732422
43,3,0.00946045,0.0213623,0.0241089,0.0259399,0.0146484,0.0411987,0.0265503,0.0268555,0.0216675,0.0314331,-0.0302124,0.00671387,0.0247192
43,4,0.0170898,0.0115967,0.0088501,0.0354004,-0.0134277,0.0344849,0.0421143,0.0292969,0.0311279,0.0100708,-0.0100708,-0.00671387,0.0186157
44,0,0.00915527,0.0183105,0.0146484,0.0299072,0.0262451,0.0256348,0.0320435,0.0210571,0.0238037,0.0222778,0.00823975,0.0152588,0.0210571
44,1,0.017395,0.00457764,0.000305176,0.00762939,0.0317383,0.0198364,0.0390625,0.0177002,0.0238037,0.0146484,-0.017395,0.0180054,0.0112915
44,2,0.00793457,0.0192261,0.00488281,0.0186157,0.0762939,0.0201416,0.0390625,0.0704956,0.00915527,0.0195312,-0.0241089,0.0326538,0.0134277
44,3,0.043335,0.0274658,0.0198364,0.0360107,0.0317383,0.00732422,0.0180054,0.0271606,0.0119019,0.0204468,-0.0283813,0.00701904,0.0143433
44,4,0.0268555,0.0195312,0.0286865,0.0134277,0.0302124,0.0268555,0.0662231,0.0378418,0.027771,0.0595093,-0.0186157,0.0268555,0.0408936
45,0,0.0125122,0.0256348,0.0271606,0.012207,-0.00488281,0.0292969,0.0390625,0.0415039,0.0299072,0.0213623,-0.0723267,0.010376,0.0268555
45,1,-0.039978,0.0283813,0.00274658,-0.0100708,0.0299072,0.0314331,0.0473022,0.0167847,0.0238037,0.0137329,-0.0396729,0.012207,0.0213623
45,2,0.0265503,0.0204468,-0.00366211,0.0268555,0.00854492,-0.00335693,0.0234985,0.0146484,0.0244141,0.0210571,-0.0140381,0.0119019,0.0164795
45,3,0.00701904,-0.000305176,0.0332642,0.0146484,0.0326538,0.0320435,0.0369263,0.0231934,0.0241089,0.0387573,-0.0167847,0.0183105,-0.0106812
45,4,0.0283813,0.027771,0.0280762,0.00518799,0.017395,0.0161743,0.00671387,0.0390625,0.0704956,0.0262451,-0.0286865,0.027771,0.012207
46,0,0.00488281,0.0189209,-0.03479,0.0198364,0.0244141,0.0210571,0.0415039,0.017395,0.03479,0.0265503,-0.0192261,0.00671387,0.00213623
46,1,0.0216675,0.0012207,0.0167847,0.0186157,0.0265503,0.0238037,0.0323486,0.0436401,0.0286865,0.0210571,-0.0192261,0.0167847,0.0158691
46,2,0.0192261,0.0241089,0.0769043,0.0146484,0.0198364,-0.00854492,0.0457764,0.0280762,0.000610352,0.0271606,-0.0210571,0.0585938,0.0189209
46,3,0.0180054,0.0210571,0.0247192,0.0363159,0.0238037,0.0323486,0.0466919,0.0283813,0.0241089,0.0543213,-0.0274658,0.0308228,0.0131226
46,4,0.010376,0.0134277,0.00396729,0.0262451,-0.00946045,0.0326538,0.027771,0.00549316,0.0393677,0.0238037,-0.0646973,0.0195312,0.0158691
47,0,0.0274658,0.0259399,0.0195312,0.038147,0.0253296,0.0125122,0.0341797,0.0222778,0.0247192,0.0308228,-0.0247192,0.0198364,0.0253296
47,1,0.0241089,0.0131226,0.0360107,0.0134277,0.0299072,-0.0244141,0.00915527,0.0201416,0.090332,0.0360107,-0.0195312,-0.00335693,0.0183105
47,2,0.0115967,-0.0167847,0.00976562,0.017395,0.0421143,0.0369263,0.0439453,0.0323486,0.0335693,0.0418091,-0.0320435,0.0186157,0.0170898
47,3,0.0167847,0.0167847,0.0305176,0.000305176,0.0219727,-0.0326538,0.0405884,0.0271606,0.0369263,0.0247192,-0.0311279,0.0189209,0.0216675
47,4,0.00701904,0.0201416,0.0247192,0.0253296,0,0.0256348,0.0363159,0.03479,0.0158691,0.0259399,-0.00488281,0.0088501,0.00854492
48,0,-0.00823975,-0.00305176,0.00793457,0.0363159,0.0186157,0.0167847,0.0442505,0.0460815,0.0332642,0.0344849,-0.0405884,0.0210571,0.0198364
48,1,0.0265503,0.0158691,0.00244141,0.0784302,0.0286865,0.0253296,-0.00732422,0.0363159,0.0384521,0.0265503,-0.0164795,0.0238037,0.0262451
48,2,0.00976562,0.0161743,0.0161743,0.0262451,0.0167847,0.012207,0.0628662,0.0192261,0.0363159,0.0250244,-0.0259399,0.0299072,0.0201416
48,3,0.0488281,0.0149536,0.00579834,0.0622559,0.0244141,0.0390625,0.0369263,0.022583,0.022583,0.0213623,-0.0192261,0.0167847,0.0192261
48,4,0.0192261,-0.00427246,0.00396729,0.0210571,0.0192261,0.0311279,0.0634766,0.0363159,0.0268555,0.0183105,-0.0320435,0.0234985,0.0247192
49,0,0.0216675,0.0268555,-0.00976562,0.0149536,0.0158691,-0.00549316,0.0405884,0.0231934,0.03479,0.0253296,-0.0125122,0.0143433,0.0161743
49,1,-0.0234985,0.0228882,0.0134277,0.0115967,0.0204468,0.0259399,0.0421143,0.0311279,0.0228882,0.0115967,-0.0250244,0.0262451,0.0128174
49,2,0.00305176,0.00823975,0.00854492,0.0302124,0.0164795,0.0427246,0.0445557,0.0192261,0.0231934,0.03479,-0.0219727,0.00640869,0.083313
49,3,0.0100708,0.000305176,0.0402832,0.00549316,0.0244141,0.0372314,0.0241089,0.038147,0.0360107,0.0372314,-0.0280762,0.00305176,-0.00152588
49,4,0.0247192,0.03479,0.0271606,0.00274658,-0.0012207,0.0198364,0.0360107,0.00610352,0.0231934,0.0408936,-0.0378418,0.00915527,0.0167847
50,0,0.0244141,0.0366211,0.00152588,0.00488281,0.0222778,0.0210571,0.0247192,0.0296021,0.0408936,0.0289917,-0.0332642,-0.0189209,0.0186157
50,1,0.0253296,0.0247192,0.0311279,0.00823975,-0.000610352,0.0177002,0.0311279,0.0222778,0.0314331,0.0170898,-0.0344849,-0.0134277,0.0125122
50,2,0.0234985,0.0134277,0.0128174,0.00946045,0.000915527,0.0363159,0.0354004,0.0204468,0.0323486,0.0134277,-0.0387573,0.0149536,0.0115967
50,3,0.0186157,0.00366211,-0.00671387,0.0131226,0.0552368,0.0354004,0.0314331,0.0238037,0.0231934,0.0384521,-0.0289917,0.0476074,0.0177002
50,4,0.0247192,0.00762939,0.0534058,0.0158691,0.0137329,0.0100708,0.0268555,0.0308228,0.0253296,0.0335693,-0.0378418,0.0167847,0.0772095
51,0,-0.00488281,0.0210571,0.012207,-0.0128174,0.0234985,0.0341797,0.038147,0.00152588,0.0250244,0.0299072,-0.0253296,0.027771,0.0198364
51,1,0.00854492,0.0195312,0.0115967,0.0534058,0.0186157,0.0256348,0.0186157,0.0350952,0.0299072,0.0921631,-0.020752,0.0201416,-0.0411987
51,2,0.0241089,0.06073,0.0314331,0.0259399,0.012207,0.0262451,0.0262451,0.0320435,0.0323486,0.0363159,-0.0326538,0.0305176,0.0161743
51,3,0.0244141,0.00640869,0.0177002,0.0164795,0.0195312,0.017395,0.0262451,0.0332642,0.0408936,0.0341797,0.00152588,0.00946045,0.00671387
51,4,0.0137329,0.017395,0.00671387,0.00671387,0.0292969,0.0119019,0.0323486,0.0390625,0.0439453,0.03479,-0.0360107,-0.00335693,-0.000305176
52,0,0.0439453,0.0119019,0.00915527,0.0271606,0.00701904,0.0250244,0.0619507,0.0424194,0.0286865,0.0106812,-0.0305176,0.0189209,-0.0457764
52,1,0.0256348,0.00701904,0.000915527,0.0210571,0.0137329,0.039978,0.0286865,0.0283813,0.017395,0.017395,-0.0189209,0.0115967,0.0128174
52,2,0.0292969,0.0292969,0.00579834,0.0152588,0.0115967,0.0146484,0.00976562,0.0292969,0.0299072,0.0390625,-0.0247192,0.0164795,0.0195312
52,3,0.0259399,0.0149536,0.0158691,0.0204468,0.0222778,0.0210571,0.0222778,0.0271606,0.0372314,0.0534058,-0.015564,0.0161743,0.015564
52,4,0.0360107,0.022583,0.0109863,0.0088501,0.00457764,0.0411987,0.0442505,0.0289917,0.0109863,0.0350952,-0.0402832,0.0274658,0.0088501
53,0,0.0140381,0.0283813,0.0183105,-0.0115967,0.0128174,0.0247192,0.0125122,0.0170898,0.0204468,0.0152588,-0.0268555,0.0213623,-0.00579834
53,1,0.039978,0.0231934,0.0167847,-0.00640869,0.0109863,0.0152588,0.0463867,0.038147,0.00640869,0.0338745,-0.0308228,0.0100708,0.0115967
53,2,0.00549316,0.0341797,0.0161743,-0.00579834,0.00701904,0.0372314,0.0244141,0.03479,0.0149536,0.0338745,-0.0320435,0.0311279,0.0106812
53,3,0.0183105,0.0430298,-0.00518799,0.00305176,0.0125122,-0.0268555,0.0192261,0.0271606,-0.0305176,0.0317383,-0.0326538,0.0390625,0.0115967
53,4,0.0308228,0.0244141,0.0195312,0.00976562,0.0323486,0.0213623,0.0164795,0.0418091,0.0408936,0.0299072,-0.0320435,0.0167847,0.0140381
54,0,0.0289917,0.0231934,0.0259399,0.00427246,0.0234985,0.0109863,0.0375366,0.101929,0.0286865,0.043335,-0.0320435,0.0088501,0.0189209
54,1,0.0234985,-0.00152588,0.00946045,0.00610352,0.00915527,0.0262451,0.0265503,0.0115967,0.0457764,0.0424194,-0.0128174,0.0247192,0.00396729
54,2,0.0311279,0.0186157,0.0192261,0.0088501,0.0463867,0.0222778,0.0286865,-0.00183105,0.0152588,0.0344849,-0.0259399,0.0161743,0.0140381
54,3,0.0317383,0.0152588,0.0408936,0.0180054,0.00915527,0.0250244,0.039978,0.0326538,0.0326538,0.0454712,-0.0482178,0.0460815,0.0189209
54,4,0.0274658,0.0244141,0.0149536,0.0268555,0.0158691,0.0198364,0.0268555,0.0183105,0.0204468,0.038147,-0.0592041,0.0262451,0.0289917
55,0,0.0375366,0.0137329,0.0274658,0.017395,0.00976562,-0.0421143,0.0231934,0.0262451,0.0302124,0.0286865,-0.0424194,0.00976562,0.0244141
55,1,0.0402832,0.0164795,0.0241089,0.0247192,0.0183105,0.0149536,0.0183105,0.0274658,0.0332642,0.0518799,-0.0326538,0.0177002,0.0259399
55,2,0.0408936,-0.00640869,0.0241089,0.0253296,0.00823975,0.0576782,0.0280762,0.0274658,0.0012207,0.0238037,-0.0311279,0.0106812,0.038147
55,3,0.0372314,0.0268555,0.00579834,0.0250244,0.022583,0.0134277,0.0195312,0.0372314,0.0311279,0.0424194,-0.0241089,0.0256348,0.0210571
55,4,0.0735474,0.017395,0.0164795,-0.0314331,0.0119019,0.0201416,0.0360107,0.0387573,0.0299072,0.03479,-0.0305176,0.0332642,0.0189209
56,0,0.03479,0.0222778,0.017395,0.0134277,0.0585938,-0.00518799,0.0286865,0.0231934,0.0308228,0.0369263,-0.0308228,0.0320435,0.0384521
56,1,0.0292969,0.0256348,0.0753784,0.00305176,0.0115967,-0.0234985,0.0222778,0.0231934,0.0170898,0.0253296,-0.0357056,0.0268555,0.0405884
56,2,0.0323486,0.0259399,0.0100708,0.00488281,0.0152588,0.0112915,0.0234985,0,0.0289917,0.0363159,-0.0256348,0.039978,0.00793457
56,3,0.0369263,0.0296021,0.0238037,0.00671387,0.0177002,0.0796509,0.0244141,0.0244141,-0.0302124,0.0439453,-0.0228882,0.0271606,0.0152588
56,4,0.0164795,0.022583,-0.0143433,0.0112915,0.00213623,0.00579834,0.0183105,0.0415039,0.017395,0.015564,-0.022583,0.0167847,0.0430298
57,0,0.0271606,0.0268555,0.0473022,0.00366211,0.022583,0.0634766,0.0366211,0.0253296,0.0900269,0.0222778,-0.0357056,-0.0088501,0.0180054
57,1,0.0411987,0.00915527,0.0302124,0.0341797,0.0134277,0.0195312,0.0247192,0.0387573,0.03479,0.0500488,-0.0430298,0.0387573,0.0363159
57,2,0.0543213,0.0247192,0.0283813,-0.00427246,-0.0274658,0.0128174,0.0228882,0.0427246,0.0283813,0.0296021,-0.03479,0.0439453,0.0369263
57,3,0.0146484,0.0259399,0.0384521,-0.0268555,0.0296021,0.00183105,0.00518799,0.0369263,0.0247192,0.0302124,-0.0286865,0.0265503,0.0299072
57,4,0.0302124,0.00274658,0.0259399,0.00915527,-0.010376,0.0253296,0.022583,0.038147,0.0231934,0.0378418,-0.0274658,0.0189209,0.0299072
58,0,0.0592041,0.0268555,0.0109863,0.0183105,0.0088501,0.00671387,0.00244141,0.0323486,0.0338745,0.0222778,-0.0335693,0.0286865,0.0369263
58,1,0.0537109,0.0210571,0.0231934,0.0253296,0.00427246,0.0106812,0.0241089,0.022583,0.0238037,0.0424194,-0.0204468,0.0314331,0.0238037
58,2,0.0549316,0.0170898,0.0292969,0.0271606,0.0286865,0.0143433,0.0106812,0.0387573,0.0296021,0.0378418,-0.0506592,0.0149536,0.0274658
58,3,-0.0149536,0.03479,0.0360107,0.00427246,0.0088501,0.00823975,0.0308228,0.0152588,0.0250244,0.0170898,-0.0280762,0.027771,0.00762939
58,4,0.0341797,0.00671387,0.0289917,0.0256348,0.0222778,0.0192261,0.0180054,0.038147,0.00732422,0.0265503,-0.0256348,0.0088501,0.0198364
59,0,0.0552368,0.0262451,0.0213623,0.0622559,0.00366211,0.0161743,-0.00976562,0.0201416,0.0360107,0.0912476,-0.0198364,0.0415039,-0.00579834
59,1,0.0317383,0.00671387,0.0219727,0.022583,0.0109863,-0.00732422,0.0250244,0.0326538,0.0411987,0.0241089,-0.0283813,0.0671387,-0.00366211
59,2,0.0296021,0.0430298,0.0247192,0.0167847,0.0149536,0.012207,0.0192261,0.00793457,0.020752,0.0283813,-0.0274658,0.0299072,0.0244141
59,3,0.0238037,-0.027771,0.0164795,0.0283813,0.0292969,0.0234985,0.038147,0.0305176,0.0262451,0.0140381,-0.0222778,0.0213623,0.0274658
59,4,0.0341797,0.015564,0.0228882,-0.0012207,0.0177002,0.0161743,0.0134277,0.0238037,0.00305176,0.0421143,-0.0253296,0.0411987,0.0228882
60,0,0.039978,0.0326538,0.027771,0.00366211,0.000915527,0.00610352,-0.0335693,-0.00488281,0.0357056,0.093689,-0.020752,0.0305176,0.027771
60,1,0.045166,0.0314331,0.0201416,0.0238037,0.0250244,0.010376,0.00640869,0.0250244,0.027771,0.00305176,-0.0692749,0.0283813,0.0149536
60,2,0.0259399,0.0338745,0.0183105,0.0161743,0.0134277,0.015564,0.000915527,0.015564,0.0354004,0.0247192,-0.0405884,0.038147,0.027771
60,3,-0.0265503,0.0210571,0.0338745,0.0662231,0.0308228,0.0128174,0.00305176,0.0256348,0.0250244,-0.0253296,-0.0323486,0.015564,0.0805664
60,4,0.0299072,-0.00762939,0.0463867,0.0189209,0.0112915,0.0152588,0.0177002,0.022583,0.0250244,0.0360107,-0.0378418,0.0311279,0.00915527
61,0,0.032959,0.00793457,0.0231934,0.0134277,0.0222778,0.0250244,0.00518799,0.0231934,0.0582886,0.0213623,-0.0350952,0.0415039,0.0439453
61,1,0.0463867,0.0720215,0.0167847,0.00671387,0.0119019,0.0137329,0.00366211,0.0164795,0.0280762,0.0244141,-0.0387573,0.0442505,0.0350952
61,2,0.038147,0.0537109,0.0354004,0.0186157,0.0317383,0.0454712,0.0183105,0.00610352,0.0183105,0.0320435,-0.0274658,0.0338745,0.0442505
61,3,0.0866699,0.0222778,0.0189209,0.0387573,0.0274658,0.0186157,0.0213623,0.0140381,0.0177002,0.0228882,-0.0192261,0.0354004,0.0338745
61,4,0.0430298,0.0268555,0.0308228,0.010376,0.017395,0.0125122,0.0314331,0.0183105,0.0442505,0.0463867,-0.0259399,0.0210571,0.0219727
62,0,0.0369263,0.0540161,0.0195312,0.0341797,0.027771,0.010376,0.017395,0.0195312,0.0280762,0.0320435,0.000305176,0.0604248,0.0369263
62,1,0.0396729,0.0241089,0.0411987,0.0259399,0.0137329,0.00244141,0.0134277,0.00915527,0.0253296,0.0216675,-0.0265503,0.0378418,0.027771
62,2,0.0311279,0.0192261,0.00793457,0.0234985,0.0128174,0.0198364,0.0271606,0.0231934,0.0259399,0.0338745,-0.022583,0.0167847,0.0488281
62,3,0.0112915,0.00823975,0.0283813,0.0308228,0.0146484,0.0177002,0.0119019,0.0234985,0.022583,0.0265503,-0.0274658,0.0415039,0.0415039
62,4,0.0344849,0.0338745,0.0222778,0.0100708,0.0140381,0.0228882,0.0698853,0.0146484,0.0253296,0.038147,-0.0213623,0.027771,0.0219727
63,0,0.0442505,0.0186157,0.0332642,0.00396729,0.0219727,0.0180054,0.0216675,0.00976562,0.0280762,0.0476074,-0.0274658,0.0137329,0.0372314
63,1,0.0350952,0.0357056,0.0817871,0.0268555,0.0164795,0.0799561,0.0112915,-0.00762939,-0.0213623,0.0308228,-0.0201416,0.0265503,0.0262451
63,2,0.0299072,0.0106812,0.0204468,0.0305176,0.0692749,0.0143433,0.022583,0.00732422,0.0253296,-0.00244141,-0.0216675,0.0292969,0.0265503
63,3,0.0314331,0.0234985,0.0195312,0.0177002,0.0198364,0.00183105,0.0177002,0.0180054,0.0119019,0.0265503,-0.0213623,0.0592041,0.0164795
63,4,0.0411987,0.0222778,0.0262451,0.0201416,0.0128174,0.00701904,0.0137329,0.0445557,0.0253296,0.0341797,-0.0576782,0.0268555,0.0262451
64,0,0.0289917,0.0350952,0.0170898,0.0219727,0.022583,0.00701904,0.0180054,0.0161743,0.0695801,0.0280762,-0.0302124,0.0305176,0.0405884
64,1,0.0506592,0.0445557,0.0012207,0.0146484,0.015564,0.0366211,0.015564,0.00915527,0.0265503,0.0320435,-0.0402832,0.0167847,0.0265503
64,2,-0.0222778,0.03479,0.0308228,0.0570679,0.000610352,0.0158691,0.0180054,0.027771,0.0131226,0.0134277,-0.0265503,0.0375366,0.0332642
64,3,0.0366211,0.0354004,0.0265503,0.0143433,0.0137329,0.0170898,0.0198364,0.0131226,0.0302124,0.0283813,-0.0305176,0.0250244,0.0311279
64,4,0.0296021,0.00854492,0.0537109,0.0161743,0.0305176,0.000915527,0.00427246,0.0170898,-0.0131226,0.0289917,-0.0146484,0.0604248,0.0231934
65,0,0.038147,0.0366211,0.0418091,-0.00183105,0.03479,0.0161743,0.015564,-0.0250244,0.0228882,0.020752,-0.00152588,0.0253296,0.0460815
65,1,0.0421143,0.00488281,0.0100708,0.0106812,0.0198364,0.0415039,0.015564,0.00732422,0.00396729,0.0198364,-0.0262451,0.0881958,0.043335
65,2,0.0485229,0.0170898,0.017395,0.0280762,0.0335693,0.020752,0.0152588,0.012207,0.0177002,0.0268555,-0.0735474,0.039978,0.0405884
65,3,0.0518799,0.0317383,0.0238037,0.038147,0.0256348,0.0134277,0.0216675,0.00946045,0.0137329,-0.0183105,-0.0201416,0.0219727,0.039978
65,4,0.0250244,0.039978,0.0299072,0.0357056,0.0314331,0.0283813,0.017395,0.0210571,0.020752,0.0482178,-0.0283813,0.0262451,-0.0210571
66,0,0.0341797,0.0305176,-0.0216675,0.0308228,0.0271606,0.0131226,0.0158691,0.0186157,0.0250244,0.0201416,-0.0418091,0.0354004,-0.0198364
66,1,0.0292969,0.0286865,0.0268555,0.0848389,0.00976562,0.0283813,0.0421143,0.00701904,0.0186157,0.0112915,-0.038147,0.0332642,0.0268555
66,2,0.0357056,0.0106812,0.00915527,0.0228882,0.0411987,0.00640869,0.0189209,0.0216675,0.0189209,0.027771,-0.0238037,0.0421143,0.0305176
66,3,0.0454712,0.0213623,0.03479,0.0219727,0.0320435,0.0732422,0.0280762,0.0134277,0.0283813,0.0177002,-0.0323486,0.000915527,0.0338745
66,4,0.0314331,0.0247192,0.0292969,0.0350952,0.0192261,0.012207,-0.032959,0.0186157,0.0213623,0.0299072,-0.0210571,0.0320435,0.0274658
67,0,0.0378418,0.0280762,-0.0360107,0.0332642,0.0317383,0.00183105,0.0149536,0.0198364,0.0335693,0.0238037,-0.0256348,0.0216675,0.0283813
67,1,0.027771,0.0167847,0.0402832,0.0286865,0.0189209,0.000305176,0.0228882,0.0259399,-0.0256348,0.0167847,-0.0341797,-0.00793457,0.0305176
67,2,0.0186157,0.0213623,0.0268555,0.0299072,0.0289917,0.00549316,0.0317383,0.0149536,0.0448608,0.0219727,-0.0296021,0.045166,0.0283813
67,3,0.0253296,0.057373,0.0192261,0.0210571,0.0170898,0.0115967,0.0177002,0.0527954,0.0424194,0.0143433,-0.0488281,0.0344849,0.0335693
67,4,0.012207,0.0177002,0.0384521,0.0299072,0.0665283,-0.00152588,0.022583,0.0088501,0.0125122,0.0177002,-0.0274658,0.0372314,0.0305176
68,0,0.0448608,0.0253296,0.0189209,0.0311279,0.0210571,0.0299072,0.0167847,0.0112915,0.0192261,-0.00152588,-0.03479,0.0317383,0.0308228
68,1,0.0360107,0.0317383,0.03479,0.0112915,0.0656128,-0.0131226,0.000915527,-0.0396729,0.0140381,0.0183105,-0.0427246,0.0418091,0.0363159
68,2,0.0308228,0.0418091,0.0234985,0.0128174,0.0219727,-0.0292969,0.0238037,0.0323486,0.0515747,0.0247192,-0.0256348,0.0338745,0.0366211
68,3,0.0366211,0.0317383,0.0262451,0.0411987,0.0332642,0.015564,0.0216675,0.0231934,0.0335693,-0.0106812,-0.0320435,0.017395,0.0250244
68,4,0.0314331,0.0177002,0.0183105,0.0222778,0.0109863,0.0201416,-0.0219727,0.0201416,0.00976562,0.0653076,-0.050354,0.039978,0.0512695
69,0,0.0262451,0.0753784,0.0265503,0.0268555,0.022583,0.0177002,0.0210571,0.0195312,0.0186157,0.0332642,-0.0244141,0.0448608,0.0244141
69,1,0.0259399,0.0430298,0.0204468,0.0518799,0.0286865,0.022583,0.0146484,0.0198364,0.0088501,0.0228882,-0.0262451,0.0198364,0.0228882
69,2,0.0320435,0.032959,0.0192261,0.020752,0.0775146,0.0265503,0.00946045,0.0363159,0.0213623,0.0250244,-0.0582886,0.0253296,0.0222778
69,3,0,0.0341797,0.0299072,0.03479,0.0143433,0.0253296,0.0213623,0.0183105,0.00946045,-0.0143433,-0.0302124,0.0354004,0.0137329
69,4,0.0167847,0.0515747,0.0161743,0.0280762,0.0158691,0.0341797,0.0134277,0.0198364,0.0421143,0.0338745,-0.0332642,0.0152588,0.0357056
70,0,0.00823975,0.0280762,0.0985718,0.0241089,0.0180054,-0.0125122,0.00793457,0.00213623,0.0210571,0.0125122,-0.0198364,0.0335693,0.0259399
70,1,0.0302124,0.0250244,0.0317383,0.0259399,0.0292969,0.0494385,0.000915527,0.00915527,0.00549316,0.012207,-0.0247192,0.0250244,0.0112915
70,2,0.0231934,0.0338745,0.0506592,0.0241089,0.00946045,0.0280762,0.0125122,0.0216675,0.00671387,0.0152588,-0.0411987,0.0350952,0.0491333
70,3,0.0283813,0.0375366,0.0292969,0.0317383,0.0247192,0.0161743,0.0204468,0.0204468,0.0177002,0.0210571,-0.0238037,0.039978,0.0411987
70,4,0.0302124,-0.00427246,0.0161743,0.0299072,-0.0305176,0.0241089,0.0119019,0.0140381,0.0106812,0.0213623,-0.017395,0.0323486,0.0387573
71,0,0.0244141,0.0158691,0.0137329,0.0247192,0.0344849,0.0363159,0.017395,0.0378418,-0.00427246,0.0814819,-0.0326538,0.0402832,0.0317383
71,1,0.0234985,0.032959,0.039978,0.0280762,0.032959,0.0390625,0.00335693,0.0164795,0.0250244,0.0213623,-0.022583,0.0106812,0.0515747
71,2,0.0204468,0.0323486,0.0317383,0.0387573,0.0396729,0.0177002,0.0186157,0.032959,-0.00793457,0.0219727,-0.0247192,0.0271606,0.0332642
71,3,0.0253296,0.0170898,0.0323486,0.0341797,0.0231934,0.0177002,0.0115967,0.00732422,0.020752,0.0213623,-0.0488281,0.0265503,0.0274658
71,4,-0.0088501,0.0341797,0.0509644,0.0598145,0.0204468,0.0143433,0.0170898,0.0210571,0.0253296,0.0314331,-0.0152588,0.00671387,0.032959
72,0,0.0363159,0.0201416,0.0326538,0.043335,0.0369263,0.0177002,0.0149536,0.0195312,0.00762939,0.0167847,-0.0552368,0.0320435,0.0338745
72,1,0.00671387,0.0360107,0.0186157,0.0439453,0.0195312,0.00671387,0.010376,0.0128174,0.00183105,0.0189209,-0.0326538,0.0439453,0.0454712
72,2,0.020752,0.0201416,0.015564,0.0643921,0.032959,0.0344849,0.00518799,0.0228882,0.0283813,0.0146484,0.00579834,0.0106812,0.0268555
72,3,0.0259399,0.0582886,0.0219727,0.0396729,0.0250244,0.0241089,0.0259399,0.0125122,0.0143433,0.0244141,-0.027771,0.0479126,0.0317383
72,4,0.0289917,0.0326538,0.00579834,0.0317383,0.0216675,0.0524902,0.015564,0.0177002,0.0137329,0.010376,-0.0317383,0.0234985,0.00854492
73,0,0.0198364,0.0274658,-0.0344849,0.027771,0.0332642,0.0872803,0.0170898,0.0112915,0.0674438,0.0250244,-0.022583,0.0680542,0.0311279
73,1,0.0256348,0.0180054,0.0204468,0.0228882,0.0341797,0.0119019,0.0262451,0.0195312,0.0231934,0.0183105,-0.0753784,0.0289917,0.0418091
73,2,0.0308228,0.0357056,0.0222778,0.0140381,0.0311279,0.0210571,0.022583,-0.00305176,0.0158691,-0.0012207,-0.0247192,0.0228882,0.0228882
73,3,-0.00335693,0.0411987,0.0210571,0.032959,0.0363159,-0.00610352,0.0186157,0.015564,0.00457764,0.0161743,-0.0296021,0.0436401,0.0228882
73,4,0.00579834,0.0296021,0.00671387,0.0411987,0.0274658,0.106812,0.012207,-0.00427246,0.0405884,0.0271606,-0.0283813,-0.0143433,0.0424194
74,0,0.0192261,0.0292969,0.0131226,0.027771,0.0357056,0.0189209,0.0228882,0.0192261,0.0253296,0.00579834,-0.0213623,0.0387573,0.0479126
74,1,0.0164795,0.0344849,0.027771,0.0250244,0.0305176,0.0354004,0.0115967,0.0198364,0.0167847,0.0234985,-0.0198364,0.0323486,0.0253296
74,2,-0.00396729,0.0509644,0.0170898,0.0360107,0.0274658,0.0149536,0.0195312,0.0106812,0.0402832,0.020752,-0.0274658,0.00579834,0.0210571
74,3,0.017395,0.0201416,0.0302124,0.0360107,0.027771,0.0149536,0.0262451,0.0149536,0.00213623,0.0167847,-0.020752,0.0332642,0.0357056
74,4,0.0292969,0.0283813,0.0488281,0.0415039,0.0250244,0.0354004,0.0280762,0.017395,0.0250244,0.0286865,-0.0186157,0.0408936,0.0265503
75,0,0.0186157,0.010376,0.0231934,0.0335693,0.0265503,0.0296021,0.0143433,0.00701904,0.0143433,0.00305176,-0.0717163,0.0311279,0.0186157
75,1,0.0436401,0.0396729,0.00946045,0.03479,0.0271606,0.050354,0.020752,0.0143433,0.00701904,0.00427246,-0.0213623,0.0302124,-0.0149536
75,2,0.0222778,0.0408936,0.0219727,0.0271606,-0.00518799,0.0405884,0.0271606,-0.0335693,0.0241089,0.00549316,-0.0250244,0.0332642,0.0527954
75,3,0.0204468,0.0186157,0.032959,0.0650024,0.0265503,0.0241089,0.0216675,0.0125122,0.0198364,0.0241089,-0.0180054,0.0350952,0.0195312
75,4,0.00396729,0.0350952,0.0408936,0.0622559,0.0198364,0.0259399,0.0280762,-0.00183105,0.0231934,0.0772095,-0.0320435,0.0283813,0.0616455
76,0,0.022583,0.0158691,0.0164795,0.0283813,0.0253296,0.0274658,0.039978,0.0222778,0.0161743,-0.0210571,-0.0231934,0.0314331,0.00427246
76,1,0.0134277,0.0491333,0.0180054,0.0314331,0.0244141,0.0375366,0.0839233,0.0119019,0.012207,-0.0424194,-0.0198364,0.0198364,0.0274658
76,2,0.0177002,0.0204468,0.0253296,0.0265503,0.0427246,0.0292969,0.0247192,0.0332642,0.0152588,0.0143433,-0.0302124,0.0332642,0.0119019
76,3,0.0125122,0.0323486,0.0296021,0.0335693,0.0390625,0.0247192,0.0183105,0.0164795,0.0234985,0.0338745,-0.0286865,0.0228882,0.0408936
76,4,0.0204468,0.0405884,0.0250244,0.032959,0.0271606,0.0317383,0.0299072,0.0219727,0.0158691,0.0265503,0.012207,0.0256348,0.0259399
77,0,0.0152588,0.0335693,0.0311279,0.0311279,0.0360107,0.0262451,0.0234985,0.0308228,-0.0180054,0.0204468,-0.0299072,0.0674438,0.0210571
77,1,0.0198364,0.0921631,0.0372314,0.0338745,0.0579834,0.0286865,0.032959,-0.0292969,0.00335693,0.0115967,-0.0210571,0.0213623,0.0308228
77,2,0.0338745,0.0344849,0.027771,0.0280762,0.0210571,0.0305176,0.0302124,0.0192261,0.0177002,0.0149536,-0.0201416,0.0128174,0.0335693
77,3,0.0167847,0.03479,-0.03479,0.032959,0.0137329,0.0341797,0.0253296,0.0390625,0.0198364,0.017395,-0.0292969,0.0253296,0.0296021
77,4,0.00640869,0.0357056,0.0271606,0.00244141,0.0372314,0.0265503,0,0.0378418,0.0125122,0.0180054,-0.0164795,0.0125122,0.0259399
78,0,0.00946045,0.00518799,0.0308228,0.0442505,-0.0296021,0.0186157,0.0311279,0.0158691,0.0012207,0.0137329,-0.0170898,0.0183105,0.020752
78,1,0.0158691,0.0299072,0.038147,0.0430298,0.0436401,0.0460815,0.0128174,0.0201416,0.0198364,-0.0289917,-0.0244141,0.0119019,0.0860596
78,2,0.020752,0.0366211,0.0375366,0.0396729,0.0421143,0.0265503,0.043335,0.0494385,0.017395,-0.000610352,-0.0216675,0.0283813,0.0292969
78,3,0.0143433,0.0424194,0.0134277,0.0271606,-0.0164795,0.0537109,0.0296021,0.0332642,-0.00946045,0.0140381,-0.00549316,0.0158691,0.038147
78,4,0.022583,0.0146484,0.0344849,0.0445557,0.0479126,0.0286865,0.0363159,0.0827026,0.0100708,0.0088501,-0.0143433,0.0204468,0.027771
79,0,0.0228882,0.0360107,0.0296021,0.0543213,0.0369263,0.0378418,0.0100708,0.0244141,0.0262451,0.0186157,-0.0216675,0.0268555,0.0338745
79,1,-0.00335693,0.0305176,0.0387573,0.0350952,0.0219727,0.015564,-0.0109863,0.0265503,0.0427246,0.0164795,-0.0152588,0.020752,0.0088501
79,2,0.0241089,0.0134277,0.0280762,0.0344849,0.0430298,0.0161743,0.0274658,0.032959,-0.0140381,0.0216675,-0.0363159,0.0183105,0.0241089
79,3,0.0442505,0.0335693,0.0253296,-0.00274658,0.0332642,0.0308228,0.0396729,0.0274658,0.022583,-0.000915527,-0.0271606,0.0198364,0.0234985
79,4,0.0164795,0.0231934,0.0234985,0.0115967,0.0296021,0.0454712,0.0338745,0.00640869,0.00579834,-0.010376,-0.032959,0.0390625,0.0305176
80,0,0.0128174,-0.00305176,0.0521851,0.032959,0.00518799,0.0817871,0.0213623,0.0332642,0.0430298,0.0198364,-0.0222778,0.0152588,0.0289917
80,1,0.0296021,0.0250244,0.0134277,0.0286865,0.0360107,0.0427246,0.0088501,0.0299072,0.020752,0.0128174,-0.0247192,0.0164795,0.0170898
80,2,0.0219727,0.022583,0.00244141,0.0323486,0.0332642,0.043335,0.0238037,0.0131226,-0.00915527,0.0146484,-0.00793457,0.0250244,0.0335693
80,3,0.0305176,0.032959,0.0259399,0.0405884,0.0372314,0.0320435,0.0436401,0.017395,0.0119019,0.0125122,-0.0253296,0.0183105,0.0369263
80,4,0.0109863,0.0234985,0.0250244,0.0274658,0.0363159,0.0363159,0.0286865,0.0250244,0.0137329,0.00854492,-0.0186157,0.0134277,0.0289917
81,0,-0.0161743,0.0268555,0.0326538,0.0305176,0.0167847,0.0219727,0.0390625,0.0134277,0.0128174,0.0195312,-0.0305176,0.015564,0.0299072
81,1,0.00610352,-0.0088501,0.0265503,0.0256348,0.0738525,0.010376,0.0344849,0.0274658,0.0177002,0.0253296,-0.0292969,0.00640869,0.0180054
81,2,0.0247192,0.0167847,0.0335693,-0.00244141,0.0241089,0.0305176,0.0601196,0.0262451,0.0183105,0.0274658,0.0146484,0.0228882,0.0314331
81,3,0.0140381,0.0289917,0.0299072,0.0271606,0.0274658,0.0405884,0.0292969,0.0219727,0.0231934,0.0250244,-0.0289917,0.0158691,0.0256348
81,4,0.0170898,0.00946045,0.0234985,0.00732422,0.0292969,0.0421143,0.0302124,0.0296021,0.0582886,0.0247192,-0.0222778,-0.0219727,0.0259399
82,0,0.0378418,0.015564,0.0326538,0.0421143,0.0372314,0.0436401,0.0296021,0.0421143,0.0112915,-0.00366211,-0.0228882,0.0228882,0.0674438
82,1,0.0466919,0.0219727,0.00549316,0.027771,0.0338745,0.045166,0.0250244,0.020752,0.0198364,0.0234985,-0.0543213,0.00671387,0.0369263
82,2,0.0167847,0.0283813,-0.0234985,0.0320435,0.0283813,0.0531006,0.038147,0.0201416,0.0405884,0.0204468,-0.0274658,-0.0463867,0.017395
82,3,0.055542,0.022583,0.0314331,-0.0390625,0.0442505,0.0271606,0.0445557,0.0152588,0.0177002,0.00976562,-0.0143433,0.00366211,0.0195312
82,4,0.0131226,0.0292969,0.00854492,0.0256348,0.0170898,0.0271606,0.0256348,0.0390625,0.0286865,0.0222778,-0.0268555,0.00976562,0.0253296
83,0,0.0720215,0.0296021,0.0183105,0.0775146,0.0149536,0.0231934,-0.0115967,0.0283813,0.0198364,0.0177002,-0.0231934,0.0088501,0.0167847
83,1,0.012207,0.0234985,0.0299072,0.0558472,0.0299072,0.0183105,0.0286865,0.0396729,0.0256348,0.039978,-0.0186157,0.0115967,0.0268555
83,2,0.0149536,0.0213623,-0.0457764,0.0308228,0.0286865,-0.0387573,0.0326538,0.020752,0.0204468,0.00976562,-0.0183105,0.00274658,0.0286865
83,3,0.0170898,-0.0088501,0.0231934,0.0219727,0.0354004,0.0216675,0.0195312,0.0134277,0.0311279,0.0164795,-0.0152588,-0.00823975,0.0222778
83,4,-0.00152588,0.0198364,0.0241089,0.062561,0.0283813,0.0476074,0.055542,0.0271606,0.022583,0.00976562,-0.0152588,0.00976562,0.0238037
84,0,0.0146484,0.022583,0.0195312,0.0317383,0.0302124,0.0302124,0.0308228,0.0238037,0.0265503,0.0186157,-0.022583,0.012207,0.0186157
84,1,0.0195312,0.0592041,0.0415039,0.022583,0.0241089,0.0326538,0.0314331,0.015564,0.0198364,0.00823975,-0.00640869,0.00457764,0.020752
84,2,0.0231934,0.0241089,0.0216675,0.0265503,0.0250244,0.0231934,0.0250244,0.0299072,0.0231934,0.00396729,-0.0238037,0.00732422,0.015564
84,3,0.0164795,0.0149536,0.0360107,0.0170898,0.0384521,-0.00366211,0.038147,0.0244141,0.00305176,0.0238037,-0.0201416,-0.00457764,0.0234985
84,4,0.0152588,0.0140381,0.0143433,0.0241089,0.0372314,0.0305176,0.0360107,0.0274658,0.0463867,0.0195312,-0.00946045,0.027771,0.0247192
85,0,0.0292969,0.0228882,0.022583,0.00671387,0.00762939,0.0268555,0.0387573,-0.0146484,0.0186157,0.0238037,-0.022583,0.0106812,0.0302124
85,1,-0.000305176,0.0222778,0.0265503,0.0375366,0.0311279,0.0262451,0.0668335,0.00823975,0.0302124,0.0280762,-0.0326538,0.0152588,0.0311279
85,2,0.0125122,0.0119019,0.0213623,0.017395,0.0372314,0.0320435,0.0308228,0.0192261,0.0119019,0.0241089,-0.0561523,0.0271606,0.0170898
85,3,-0.00427246,0.0326538,0.0323486,0.0271606,0.0219727,0.0247192,0.0286865,0.0384521,0.0186157,0.038147,-0.0311279,0.0125122,0.0360107
85,4,0.00946045,0.0286865,0.0149536,0.0164795,0.0216675,0.0341797,0.0445557,0.0164795,0.0256348,0.0106812,-0.012207,0.010376,0.00518799
86,0,0.0250244,0.0848389,0.0259399,0.0180054,-0.0125122,0.0350952,0.0204468,0.0387573,0.0292969,0.0177002,-0.0177002,0.0164795,0.0286865
86,1,0.0164795,0.0115967,-0.0231934,0.0106812,0.0360107,0.0772095,0.0454712,0.0289917,0.0228882,0.0222778,-0.0192261,0.0128174,0.00427246
86,2,0.0250244,0.00488281,0.00854492,0.0302124,0.0186157,0.0283813,0.0186157,0.0402832,0.0234985,0.0234985,-0.0177002,0.0109863,0.0158691
86,3,0.015564,-0.0552368,0.0262451,0.0222778,0.0216675,0.0384521,0.0292969,0.0726318,0.0198364,0.0192261,-0.0204468,0.0125122,0.0198364
86,4,0.0234985,0.0088501,0.020752,0.0213623,0.0280762,0.0332642,0.0424194,0.0335693,0.0268555,0.00152588,-0.0268555,0.00976562,-0.0167847
87,0,0.00244141,0.00549316,0.017395,0.0366211,0.0247192,0.0283813,0.0341797,0.0384521,0.0201416,0.0186157,-0.0170898,0.0119019,-0.00579834
87,1,0.0262451,0.0308228,0.0198364,0.0189209,0.0469971,0.0198364,0.0198364,0.00701904,0.0335693,0.0256348,-0.00671387,0.0131226,0.0167847
87,2,0.0262451,0.0158691,0.0259399,0.0320435,0.0286865,0.0180054,0.0411987,0.0210571,0.0332642,0.0143433,-0.0219727,0.032959,0.00732422
87,3,0.0152588,0.00549316,0.022583,0.0213623,0.0274658,-0.00549316,0.0442505,0.0308228,0.0588989,0.00793457,-0.0164795,-0.0195312,0.0427246
87,4,0.0164795,0.0219727,0.00976562,0.0152588,0.0656128,0.0213623,0.0354004,0.0280762,0.0317383,0.0210571,-0.0427246,0.010376,0.0161743
88,0,0.0228882,0.00915527,0.0268555,0.0238037,0.0219727,-0.00793457,0.0213623,0.0308228,0.00152588,0.0152588,-0.010376,-0.0366211,0.0219727
88,1,-0.0125122,-0.00213623,0.00152588,0.0259399,0.0222778,0.0582886,0.0360107,0.0393677,0.0439453,0.0186157,-0.000610352,0.00213623,0.0186157
88,2,0.0250244,0.0180054,0.0186157,0.0204468,0.0283813,0.0222778,0.0320435,0.0253296,0.0299072,0.0308228,0,0.0259399,0.0222778
88,3,0.0259399,0.0271606,0.0152588,0.00518799,0.0283813,0.03479,0.0299072,0.0311279,-0.0164795,0.0320435,-0.0335693,0.0186157,-0.0134277
88,4,0.0119019,0.0354004,0.00183105,0.0134277,-0.0299072,0.0405884,0.0408936,0.0210571,0.0131226,0.0213623,-0.0228882,0.0143433,0.0195312
89,0,0.0109863,0.0128174,0.0152588,0.0183105,0.0186157,0.0372314,0.0415039,-0.0213623,0.0314331,0.032959,-0.020752,0.0125122,0.0283813
89,1,0.0198364,-0.00854492,0.0170898,0.072937,0.0241089,0.0317383,0.0320435,0.0158691,0.0289917,0.0259399,0.0219727,0.0143433,0.0158691
89,2,0.0296021,0.00762939,0.00762939,0.0115967,0.0335693,0.0271606,0.0375366,0.0167847,0.038147,0.0485229,-0.0262451,0.0100708,0.0500488
89,3,0.0338745,-0.00823975,0.0152588,0.000305176,0.03479,0.0234985,-0.00427246,0.0616455,0.0219727,0.0390625,-0.0302124,0.00305176,0.00946045
89,4,0.0448608,0.0216675,0.0247192,0.010376,0.0247192,0.0170898,0.0292969,0.0408936,0.0289917,0.0152588,-0.0302124,0.0222778,0.0216675
90,0,0.0692749,0.00427246,0.00396729,0.0616455,0.0238037,0,-0.0241089,0.0424194,0.0231934,0.0387573,-0.0317383,0.0161743,0.022583
90,1,0.0112915,0.00274658,0.00854492,0.0219727,0.0192261,0.0299072,0.0488281,0.0616455,0.0317383,0.0311279,-0.0610352,0.0158691,0.00793457
90,2,0.0338745,0.0177002,0.0228882,0.0354004,0.0128174,0.0341797,0.0372314,0.0384521,0.0302124,0.00427246,-0.0204468,0.0366211,0.00732422
90,3,0.0170898,0.00396729,0.0360107,0.0354004,0.0204468,0.0366211,0.0265503,0.0244141,-0.0201416,0.0219727,-0.0164795,0.0695801,0.0149536
90,4,0.00762939,0.0234985,0,0.038147,0.0259399,0.0177002,0.0402832,0.0134277,0.0332642,0.0250244,-0.0164795,-0.00305176,0.0119019
91,0,0.0305176,-0.00579834,0.0640869,-0.000915527,0.0210571,0.0369263,0.017395,0.0335693,0.0177002,0.0335693,-0.0195312,0.0170898,0.0115967
91,1,0.00915527,0.00335693,0.0216675,0.0308228,0.015564,0.0299072,-0.012207,0.0408936,0.020752,0.0274658,-0.00579834,0.0201416,0.00427246
91,2,0.0167847,0.00610352,0.0170898,0.0289917,0.0292969,0.0100708,0.0393677,0.0485229,0.0231934,0.0158691,-0.0244141,0.0494385,0.0186157
91,3,0.0216675,-0.0100708,0.012207,0.0280762,0.03479,0.0210571,0.0335693,0.00427246,0.0164795,0.0222778,-0.0183105,0.020752,0.0238037
91,4,0.0280762,0.0140381,0.0213623,0.0228882,0.0683594,0.0189209,0.0357056,-0.0311279,0.0335693,0.0332642,-0.0259399,0.0244141,0.0106812
92,0,0.0308228,0.0186157,0.0125122,0.022583,0.012207,0.0189209,0.0384521,0.0012207,0.0360107,0.0262451,-0.0500488,0.010376,0.00640869
92,1,0.0219727,0.00152588,0.000610352,0.0213623,0.0289917,0.0259399,0.0317383,0.0396729,0.0415039,0.0131226,-0.0341797,0.00854492,0.0109863
92,2,0.0119019,0.000915527,0.0115967,0.00396729,0.0238037,0.0354004,0.0427246,0.0387573,0.0540161,0.0283813,-0.0259399,-0.0012207,0.0219727
92,3,-0.000915527,0.00488281,0.00396729,0.0238037,0.00732422,0.0140381,0.0460815,0.0396729,0.0228882,0.0341797,-0.0128174,0.0143433,0.0128174
92,4,0.0299072,0.0430298,0.000915527,0.020752,0.0268555,0.0283813,0.0317383,0.0286865,0.0198364,0.0140381,-0.0302124,-0.0241089,0.012207
93,0,0.0222778,-0.00579834,0.0189209,0.0088501,0.0213623,0.0158691,0.0384521,0.0436401,0.00366211,0.0256348,0.00396729,0.0222778,0.0134277
93,1,0.0942993,0.0198364,0.0119019,0.0610352,0.0286865,0.0164795,0.0714111,0.039978,0.0192261,0.0830078,0.00305176,0.0115967,0.0363159
93,2,0.0247192,0.0140381,0.00915527,0.022583,0.0167847,0.0222778,0.0393677,0.0344849,0.0213623,0.0308228,-0.0146484,0.0177002,-0.0152588
93,3,0.0238037,0.0106812,0.00183105,0.0109863,0.0302124,0.0265503,0.0256348,0.039978,0.0216675,0.0274658,-0.0231934,0.0357056,0.00640869
93,4,0.0354004,0.0112915,0.0134277,0.00274658,0.0280762,0.0201416,0.0299072,0.0415039,0.0201416,0.0402832,-0.0216675,0.0231934,0.0674438
94,0,0.0247192,0.00244141,0.0192261,0.0186157,0.0231934,0.00518799,0.0320435,0.0387573,0.017395,0.0369263,-0.0213623,0.010376,0.0317383
94,1,0.0247192,-0.00823975,0.0201416,0.0131226,0.0164795,0.0280762,0.039978,0.0354004,0.0335693,0.0308228,-0.0317383,0.0250244,0.00671387
94,2,-0.00823975,0.012207,0.0189209,0.0527954,0.0128174,0.0384521,0.0274658,0.0167847,0.00946045,0.0320435,-0.0271606,0.0213623,0.0131226
94,3,0.0357056,0.0167847,-0.00762939,0.0177002,-0.027771,0.0268555,0.0335693,0.0369263,0.0473022,0.0421143,-0.0308228,0.0231934,0.0302124
94,4,0.0338745,0.0891113,0.0149536,0.0372314,-0.0231934,0.0241089,0.0286865,0.0546265,0.0213623,0.0289917,-0.0308228,0.000610352,0.0195312
95,0,0.0210571,0.0088501,0.0149536,0.0708008,0.0152588,0.0341797,0.0631714,0.0292969,0.038147,0.0128174,-0.0210571,0.0195312,0.00640869
95,1,0.0186157,0.0192261,0.0149536,0.0378418,0.0250244,0.0280762,0.0189209,0.0299072,-0.0289917,0.0192261,-0.0201416,0.0552368,0.0161743
95,2,0.00152588,0.0320435,0.00793457,0.0332642,0.00183105,0.0326538,0.03479,0.0411987,0.0213623,0.00793457,-0.0198364,0.0244141,0.0637817
95,3,0.0335693,-0.0167847,0.0125122,0.0549316,-0.0311279,0.0305176,0.0247192,0.0189209,0.0137329,0.020752,-0.0280762,0.0341797,0.0259399
95,4,0.0842285,0.00915527,-0.0088501,0.0839233,0.0201416,0.010376,0.098877,0.0357056,0.0305176,0.0668335,-0.0418091,0.0259399,-0.03479
96,0,0.0579834,0.0177002,0.0115967,0.0366211,0.00396729,0.012207,0.0250244,0.06073,0.0354004,0.0161743,-0.0689697,0.0088501,0.0344849
96,1,0.0582886,0.00366211,-0.000915527,0.0357056,0.0442505,0.00701904,0.0219727,0.0338745,0.0259399,0.0210571,-0.0387573,0.0247192,0.0216675
96,2,0.0265503,0.027771,0.000610352,0.0268555,0.022583,0.0167847,0.0289917,0.0338745,0.0515747,0.039978,-0.0109863,0.00976562,0.0170898
96,3,0.0350952,0.0210571,0.00915527,0.0320435,0.0216675,0.017395,0.0274658,0.0250244,0.0112915,0.00396729,-0.0393677,0.020752,0.015564
96,4,0.0201416,0.0140381,0.015564,0.038147,0.00701904,0.0128174,0.0106812,0.03479,0.0219727,0.00640869,-0.0283813,0.0219727,0.0704956
97,0,0.0338745,0.0213623,0.0143433,0.0357056,0.0421143,0.0109863,0.0262451,0.0317383,0.0427246,0.015564,-0.0506592,0.0119019,0.0149536
97,1,0.0323486,0.0164795,0.0228882,0.101929,0.0378418,0.017395,0.0527954,0.0186157,0.0250244,0.0198364,-0.0448608,0.0256348,0.0125122
97,2,0.0283813,0.0274658,-0.0350952,0.0427246,0.0125122,0.0366211,0.0436401,0.0421143,0.0463867,0.0198364,-0.0177002,0.0341797,-0.000610352
97,3,0.0177002,0.00701904,0.00244141,0.0384521,0.0363159,0.0360107,0.0213623,0.0369263,0.0817871,-0.00183105,-0.0286865,0.0610352,0.0222778
97,4,0.0341797,0.0128174,0.00701904,0.0534058,0.0149536,0.0674438,0.0350952,0.0357056,0.00305176,0.0109863,-0.0369263,0.0262451,0.0106812
98,0,0.0201416,0.0219727,-0.0164795,0.0592041,0.015564,0.0637817,0.0189209,0.0378418,0.0518799,0.00976562,-0.0311279,0.0234985,0.0360107
98,1,0.0204468,0.0393677,0.0189209,0.0619507,0.0228882,0.0289917,0.010376,0.0314331,0.0357056,-0.0268555,-0.0222778,0.0109863,-0.0308228
98,2,0.0219727,0.0265503,0.00457764,0.0393677,0.0115967,0.0283813,0.0280762,0.0250244,0.0387573,0.0109863,-0.0302124,0.0234985,0.0189209
98,3,0.0244141,0.027771,0.0195312,0.0534058,0.015564,0.0186157,-0.0393677,0.0253296,0.00854492,0.0170898,-0.0354004,0.0231934,0.0204468
98,4,0.0332642,0.0259399,0.00640869,0.0479126,0.0134277,0.0238037,0.0332642,0.00762939,0.0317383,0.00823975,0.0164795,0.0195312,0.0216675
99,0,-0.00762939,0.0195312,0.0106812,0.0128174,0.0210571,0.0216675,0.0308228,0.0180054,0.0137329,0.0112915,-0.0726318,0.0241089,0.0088501
99,1,0.0219727,0.0280762,0.0378418,0.0570679,0.0164795,0.00793457,0.0231934,0.0213623,0.0332642,0.0189209,-0.0250244,0.0164795,0.0115967
99,2,0.0317383,-0.0494385,0.0189209,0.0418091,0.0640869,0.0280762,0.0283813,0.022583,0.00946045,0.00427246,-0.0311279,0.0265503,0.00793457
99,3,0.0323486,0.0238037,0.00274658,0.0476074,0.020752,0.0521851,0.0158691,0.0341797,0.015564,0.012207,-0.0354004,0.0311279,0.0186157
99,4,0.0292969,0.017395,0.0186157,0.0802612,0.0228882,0.0259399,0.0305176,0.0317383,0.0256348,0.010376,-0.0518799,0.0350952,-0.0131226
100,0,0.0354004,0.039978,0.0457764,0.0506592,0.0161743,-0.0579834,0.0231934,0.0210571,0.0186157,0.0204468,-0.0299072,0.0640869,0.010376
100,1,0.017395,0.0292969,0.00671387,0.0360107,0.0137329,0.0131226,0.022583,0.00976562,0.0274658,-0.0204468,-0.0296021,0.0238037,0.020752
100,2,0.0372314,0.0299072,0.0357056,0.0985718,0.0219727,0.0238037,0.0485229,0.0265503,0.0338745,0.0170898,-0.0354004,0.0158691,0.0119019
100,3,0.0189209,0.0521851,0.0222778,-0.00305176,0.0271606,0.0189209,-0.00823975,0.0228882,0.0289917,-0.0271606,-0.0311279,0.0134277,0.0302124
100,4,0.0454712,0.0350952,0.00488281,0.0488281,0.00823975,0.0305176,0.0271606,0.0378418,0.0247192,0.0479126,-0.0424194,0.017395,0.0360107
101,0,0.032959,0.0335693,-0.00396729,0.0274658,0.0262451,0.0991821,0.0180054,0.0183105,0.000915527,0.0247192,-0.0265503,0.0274658,0.0231934
101,1,0.0280762,0.0317383,0.00854492,0.0350952,0.0350952,0.00549316,0.0088501,0.00518799,0.0170898,0.0390625,-0.039978,0.0234985,0.0198364
101,2,0.0195312,0.0393677,0.00793457,-0.0106812,0.0241089,0.0192261,0.00366211,0.0259399,0.0247192,0.0286865,-0.0335693,0.0350952,0.0262451
101,3,0.0268555,0.039978,-0.00976562,0.0198364,0.0448608,0.0271606,0.0357056,0.067749,0.0473022,0.0415039,-0.0326538,0.022583,0.0161743
101,4,0.0302124,-0.00152588,0.00701904,0.0274658,0.0112915,0.0143433,0.020752,0.0280762,0.0534058,0.0375366,-0.0308228,0.0143433,0.0253296
102,0,0.0405884,0.0469971,0.0210571,-0.00457764,0.0180054,0.00946045,0.00366211,0.0241089,0.0390625,0.0588989,-0.0299072,0.067749,0.0134277
102,1,0.0317383,0.0292969,0.015564,0.010376,0.0100708,0.0271606,0.00396729,0.0268555,0.0341797,0.0604248,-0.0292969,0.0201416,0.0100708
102,2,0.039978,0.0415039,0.0314331,0.022583,0.0256348,0.0534058,0.0192261,0.0213623,0.0799561,0.0543213,-0.0378418,0.0341797,0.0244141
102,3,0.0231934,0.0253296,0.0177002,0.0344849,-0.0283813,0.0161743,0.0286865,-0.0296021,0.0360107,0.0213623,-0.0299072,0.0317383,0.0189209
102,4,0.0283813,0.0131226,0.0234985,0.0125122,0.00579834,0.0170898,0.0128174,0.0332642,0.0418091,0.0576782,-0.0234985,0.0289917,0.0720215
103,0,0.062561,0.0421143,0.0256348,-0.0228882,0.0256348,0.0100708,0.00244141,0.0350952,0.0262451,0.0592041,-0.0375366,0.0350952,0.0192261
103,1,0.010376,0.0195312,0.0231934,0.0311279,0.0164795,0.0262451,0.0152588,0.0247192,0.0320435,0.0418091,-0.0280762,0.0344849,0.0350952
103,2,0.0317383,0.0183105,0.0137329,0.0192261,0.0198364,0.0201416,0.0296021,0.00457764,0.00366211,0.0527954,-0.0320435,0.0390625,0.0238037
103,3,0.0396729,0.0372314,0.0152588,0.0106812,0.0317383,0.00732422,0.0143433,0.0491333,0.0408936,0.0482178,-0.00152588,0.0482178,0.015564
103,4,0.0192261,0.0372314,0.0326538,0.0335693,0.0238037,0.0112915,-0.00427246,0.0228882,-0.000305176,0.0509644,-0.0268555,0.0744629,0.0137329
104,0,0.0341797,0.0244141,0.0274658,0.0088501,0.0259399,0.0320435,0.00793457,0.0183105,0.0289917,0.0668335,-0.0299072,0.0296021,0.0341797
104,1,0.0231934,0.0354004,0.0167847,0.00640869,-0.0616455,0.0140381,0.0134277,0.00610352,0.0387573,0.0466919,-0.0164795,0.0228882,0.0247192
104,2,0.0268555,0.0189209,0.0326538,0.0109863,0.022583,0.0134277,0.0369263,0.0186157,0.0180054,0.0689697,-0.032959,0.0219727,0.00946045
104,3,0.0274658,0.0228882,0.00915527,0.00152588,0.0161743,0.000610352,0.0238037,0.0198364,0.012207,0.0640869,-0.0369263,0.0332642,0.0131226
104,4,0.00976562,0.0326538,0.0628662,0.00640869,0.0201416,0.015564,0.0106812,0.0283813,0.0296021,0.0494385,-0.0366211,0.0292969,0.0112915
105,0,0.0338745,0.0375366,-0.0106812,0.012207,0.0238037,-0.0189209,0.0222778,0.0259399,0.0271606,0.0579834,-0.0262451,0.0979614,0.0280762
105,1,0.027771,0.0296021,0.0167847,0.00732422,0.0152588,0.0466919,0.0195312,0.0262451,0.0387573,0.0366211,-0.0289917,0.0161743,0.0228882
105,2,-0.0161743,0.0308228,0.0299072,0.00213623,0.0238037,0.0100708,0.0216675,0.0302124,0.0320435,0.0280762,-0.0292969,0.0201416,0.0326538
105,3,0.0250244,0.0369263,0.0213623,0.00640869,0.0161743,0.0250244,0.00427246,0.0183105,0.00701904,0.0469971,-0.0311279,0.00457764,0.0280762
105,4,-0.00854492,0.00335693,0.0271606,-0.0177002,0.00152588,0.0244141,0.0231934,0.0149536,0.0195312,0.0842285,-0.0668335,0.0177002,-0.0152588
106,0,-0.00823975,0.0271606,0.0296021,-0.00701904,0.0137329,0.0234985,0.015564,0.0256348,0.0250244,0.0396729,-0.0457764,0.0405884,0.0274658
106,1,0.0234985,0.0274658,0.043335,0.00427246,-0.00518799,0.00518799,0.0234985,0.0100708,0.0418091,0.0344849,-0.0228882,0.0350952,0.00518799
106,2,0.0396729,0.0378418,0.0167847,0.00579834,0.000915527,0.0167847,0.0198364,-0.0222778,0.0366211,0.032959,-0.0473022,0.0360107,0.0341797
106,3,0.0494385,0.0814819,0.050354,0.00762939,-0.00762939,0.0180054,0.00976562,-0.0170898,0.0305176,0.0204468,-0.0323486,0.0256348,0.0259399
106,4,-0.0308228,0.0241089,0.0299072,-0.045166,0.0119019,0.00915527,0.057373,0.0231934,0.0247192,0.0198364,-0.0338745,0.03479,0.0286865
107,0,0.039978,0.0311279,-0.0146484,0.0180054,0.0457764,0.0161743,0.0088501,0.0143433,0.0387573,0.0271606,-0.0372314,0.0262451,0.0137329
107,1,0.0421143,0.0311279,0.0360107,0.0350952,0.0265503,0.0238037,0.0186157,0.00854492,0.027771,-0.0463867,-0.0366211,0.0259399,0.0619507
107,2,0.0268555,0.0213623,0.0128174,0.0125122,0.010376,0.0628662,0.0305176,0.017395,0.0332642,0.017395,-0.0366211,0.0314331,0.0418091
107,3,0.0778198,0.0360107,0.0204468,-0.045166,0.0476074,0.0146484,0.0592041,0.00701904,0.0308228,-0.0335693,-0.0210571,0.0274658,0.0454712
107,4,0.00305176,0.027771,0.0241089,0.0112915,0.0299072,0.0195312,-0.0195312,0.0280762,0.0231934,-0.00427246,-0.0387573,0.0311279,0.022583
108,0,0.0228882,-0.0100708,0.0271606,0.0170898,0.0320435,0.0106812,0.0164795,0.0256348,0.0448608,0.0292969,-0.0256348,0.0360107,0.0311279
108,1,0.0354004,0.0262451,0.0244141,0.00946045,0.00701904,0.0167847,0.00274658,0.0271606,0.0299072,0.0222778,-0.0546265,0.0424194,0.0506592
108,2,0.0506592,0.0411987,0.03479,0.00152588,0.0134277,0.0183105,0.0228882,0.0112915,0.0250244,-0.00213623,-0.0720215,0.0384521,0.012207
108,3,0.0384521,0.0384521,0.0402832,-0.00549316,0.0289917,-0.0308228,0.0231934,0.0189209,0.0668335,0.015564,-0.0323486,0.0332642,0.0195312
108,4,0.0418091,0.0259399,0.0109863,0.0100708,0.0408936,0.0167847,0.0305176,0.0396729,0.0216675,0.0146484,-0.0485229,0.0369263,0.0769043
109,0,0.0289917,0.0283813,0.0158691,0.000915527,0.0350952,0.0106812,0.0100708,0.0100708,0.0250244,-0.00518799,-0.032959,0.0344849,0.0360107
109,1,0.0308228,0.0384521,0.0341797,0.00579834,-0.0411987,0.0320435,0.0100708,-0.0363159,0.0424194,0.0119019,-0.0354004,0.0238037,0.0192261
109,2,0.0247192,0.00762939,0.039978,0.00671387,0.0305176,0.0100708,0.0177002,-0.0170898,0.0289917,0.0222778,-0.0283813,0.0170898,0.0454712
109,3,0.0131226,0.0326538,0.0335693,-0.0366211,0.0305176,0.0296021,0.0100708,0.0228882,0.0186157,0.0338745,-0.0360107,0.0253296,0.0204468
109,4,0.032959,0.0823975,0.0445557,0.00762939,0.0296021,0.00152588,0.0177002,0.012207,0.0183105,0.0274658,-0.0228882,0.0527954,0.0216675
110,0,0.0216675,0.0292969,-0.0106812,0.0177002,0.0302124,0.0238037,0.0112915,0.0195312,0.0613403,0.0164795,-0.0317383,-0.000915527,0.0323486
110,1,0.0137329,0.0286865,0.0247192,0.0534058,0.0289917,0.0201416,0.0637817,0.0115967,0.0119019,0.0265503,-0.0280762,0.0372314,0.0253296
110,2,0.0402832,0.062561,0.0369263,0.0283813,0.0210571,0.0314331,0.0137329,0.0183105,0.0115967,0.0268555,-0.0292969,0.0378418,0.0341797
110,3,0.020752,0.0170898,0.0344849,0.017395,0.0234985,0.022583,0.0274658,0.03479,0.0088501,0.0210571,-0.0183105,0.0341797,0.0323486
110,4,-0.022583,0.0256348,0.0292969,-0.0332642,0.0201416,0.0161743,0.00701904,0.0167847,0.0219727,0.0442505,-0.020752,0.0387573,0.0820923
111,0,0.0201416,0.0180054,0.0369263,0.0149536,0.0247192,0.00457764,-0.00335693,0.0164795,0.0302124,0.0177002,-0.0323486,0.0280762,0.0393677
111,1,0.0244141,0.0357056,0.0341797,0.00946045,0.0198364,0.0320435,0.0161743,0.0213623,0.0500488,0.00671387,-0.0253296,0.0213623,0.0360107
111,2,0.0390625,0.0262451,0.0787354,0.00579834,0.0241089,0.0244141,0.0189209,0.0216675,0.0088501,0.0228882,-0.0350952,0.0387573,0.0189209
111,3,0.00976562,0.00579834,0.0253296,0.00793457,0.020752,0.027771,0.0146484,0.0390625,0.0234985,0.0161743,-0.0247192,0.0204468,0.03479
111,4,0.0415039,0.0210571,0.0350952,0.0256348,0.0332642,0.0164795,0.015564,0.00305176,0.0137329,0.0192261,-0.0259399,0.0283813,0.0387573
112,0,0.0219727,0.0268555,-0.00183105,0.0192261,0.0219727,0.0180054,-0.017395,0.017395,0.0234985,0.0561523,-0.043335,0.0366211,0.0418091
112,1,0.0170898,0.0372314,0.0341797,0.0119019,0.0430298,0.0109863,0.0241089,0.0643921,0.0262451,0.0158691,-0.0662231,0.0311279,0.0323486
112,2,0.0241089,0.0286865,0.0396729,0.0137329,0.0619507,0.0106812,0.0146484,-0.015564,0.0119019,0.0088501,-0.038147,0.0338745,0.0460815
112,3,0.0262451,0.0344849,0.0177002,0.0134277,0.020752,0.00854492,-0.000610352,0.0247192,0.0253296,0.0320435,-0.0259399,0.0311279,0.022583
112,4,0.00976562,0.0323486,0.0387573,-0.00427246,0.032959,0.0213623,0.00549316,0.0286865,0.0265503,0.0219727,-0.0448608,0.0372314,0.0299072
113,0,0.0357056,0.0137329,0.0357056,0.00518799,0.0250244,0.0683594,0.012207,0.0161743,0.0250244,0.00305176,-0.0311279,0.0234985,0.043335
113,1,0.0344849,0.000305176,0.0372314,0.00427246,0.0912476,-0.0109863,0.0140381,0.000915527,0.0119019,0.0146484,-0.032959,0.0494385,0.0405884
113,2,-0.0192261,0.0164795,0.0308228,-0.0341797,-0.00305176,0.010376,0.0366211,0.0552368,0.0195312,0.0231934,-0.00518799,0.0396729,0.0344849
113,3,-0.0317383,0.0247192,0.0375366,0.0143433,0.0332642,0.0186157,0.022583,0.0183105,0.017395,0.0115967,-0.0354004,0.0250244,0.0332642
113,4,0.0167847,0.0247192,0.0296021,-0.00671387,0.020752,-0.0177002,0.0564575,0.0143433,0.00610352,0.0393677,-0.0274658,0.0338745,0.0259399
114,0,0.0326538,0.0326538,0.0323486,0.0125122,0.0109863,0.0210571,0.0280762,0.0177002,0.0286865,0.020752,0.00457764,0.0134277,0.0302124
114,1,0.0439453,-0.0137329,0.0442505,0.0134277,-0.00457764,0.00976562,0.00640869,-0.00671387,0.0128174,0.0338745,-0.0289917,0.0244141,0.0350952
114,2,0.0448608,0.0268555,0.0332642,0.0088501,0.0192261,0.0146484,0.0128174,0.0115967,0.0088501,0.0183105,-0.0210571,0.0256348,0.0427246
114,3,0.0439453,0.0170898,0.0405884,0.0167847,0.0515747,0.00640869,0.017395,0.0161743,0.020752,0.0238037,-0.0357056,0.0445557,0.0360107
114,4,0.0149536,0.0213623,0.0454712,0.0280762,0.0271606,0.0134277,0.00823975,0.0128174,0.0256348,-0.0344849,-0.0216675,0.0253296,0.0216675
115,0,0.0302124,0.0274658,0.0485229,0.0216675,0.0320435,0.0170898,0.00732422,0.0109863,0.00762939,0.0201416,-0.027771,0.0268555,0.055542
115,1,0.0289917,0.0088501,0.0491333,0.0244141,0.039978,0.0305176,0.0219727,0.00396729,0.0784302,0.0149536,-0.0311279,0.0708008,0.0335693
115,2,0.0256348,0.022583,0.0280762,0.0305176,0.0210571,0.0289917,0.0161743,0.00396729,0.0201416,0.0140381,-0.043335,-0.0146484,0.0500488
115,3,0.0189209,0.0250244,0.0268555,0.032959,0.0259399,0.0332642,0.0164795,0.00579834,0.0457764,0.0268555,-0.0268555,0.0613403,0.0244141
115,4,-0.00152588,0.0152588,0.0442505,0.0588989,0.0335693,0.020752,0.0540161,0.0222778,0.0210571,-0.0366211,-0.0213623,0.00579834,0.00854492
116,0,0.0262451,0.0210571,0.0466919,0.0143433,0.0213623,0.000305176,0.0259399,-0.00213623,0.0250244,0.0088501,-0.0201416,0.0445557,0.0357056
116,1,0.0262451,0.0274658,0.0259399,0.0186157,0.0195312,0.0210571,0.0195312,0.00579834,0.0213623,0.00762939,-0.0253296,0.0369263,-0.0204468
116,2,0.0375366,0.015564,0.0311279,-0.0115967,0.039978,0.0268555,0.0134277,0.0167847,0.0149536,0.0296021,-0.0415039,0.0128174,0.0314331
116,3,-0.000610352,0.0112915,0.0332642,0.0292969,0.0360107,0.017395,0.0213623,0.00518799,0.0183105,0.0152588,-0.0372314,0.0216675,0.032959
116,4,0.0192261,0.0427246,0.0134277,0.0292969,0.0195312,0.0527954,0.0152588,0.0158691,0.00579834,0.00976562,-0.0338745,-0.00183105,0.0497437
117,0,0.0280762,0.022583,0.0292969,0.012207,-0.00213623,0.0289917,0.022583,0.065918,0.0247192,0.0204468,-0.0247192,0.0189209,0.0424194
117,1,0.0164795,0.0289917,0.0360107,0.0219727,0.00671387,0.0186157,0.0134277,0.0332642,0.0497437,0.0296021,-0.0198364,-0.0308228,0.0411987
117,2,0.0845337,0.0213623,0.0296021,0.0695801,0.0256348,0.0180054,0.0259399,0.00396729,0.00549316,0.0350952,-0.0253296,0.0341797,0.0180054
117,3,0.0262451,0.0378418,0.0311279,0.0167847,0.0357056,0.0088501,0.0265503,0.0253296,0.0180054,0.017395,-0.020752,0.0375366,0.0292969
117,4,0.0360107,0.0317383,0.0256348,0.0222778,0.0302124,0.0177002,0.0286865,0.0250244,0.022583,-0.000610352,-0.0537109,0.0210571,-0.0302124
118,0,0.0280762,0.0289917,0.0259399,0.00976562,0.0256348,0.0384521,0.03479,-0.00183105,0.00396729,-0.0393677,-0.027771,0.0360107,0.0427246
118,1,0.0195312,0.0149536,0.0253296,0.0289917,0.0344849,0.0335693,0.067749,0.0228882,0.0262451,0.0714111,-0.0286865,0.00701904,0.0598145
118,2,-0.00457764,0.0134277,0.0363159,-0.0134277,0.0137329,0.0177002,0.0128174,-0.00823975,0.0250244,0.0149536,-0.0183105,0.0210571,0.00549316
118,3,0.0314331,0.0317383,0.0341797,0.0396729,0.0274658,0.0161743,0.0128174,0.0158691,0.0546265,0.0152588,-0.0167847,0.0704956,0.0411987
118,4,0.027771,0.0244141,0.0314331,0.0610352,0.0164795,0.0427246,0.0247192,0.0228882,0.0180054,0.015564,-0.0204468,0.0210571,0.0357056
119,0,0.0296021,0.0231934,0.0787354,0.0256348,0.0296021,0.038147,0.0350952,0.0302124,0.0112915,0.0289917,-0.00305176,0.0311279,0.0341797
119,1,0.0198364,0.0170898,0.0308228,0.0265503,0.020752,0.0128174,0.0262451,0.0198364,0.00305176,0.0170898,-0.0164795,0.0238037,0.0268555
119,2,0.0247192,-0.0299072,0.020752,0.0268555,-0.0262451,0.0192261,0.022583,0.0241089,0.0152588,0.00976562,-0.0140381,0.0469971,0.0180054
119,3,0.0238037,0.0109863,0.0323486,0.0292969,0.0839233,0.0259399,0.0201416,0.0311279,0.0161743,0.0222778,-0.0549316,0.0308228,0.0289917
119,4,0.015564,0.0344849,0.010376,0.0253296,-0.0274658,0.0354004,0.0256348,0.020752,0.0192261,0.0195312,-0.0201416,0.0292969,0.0198364
120,0,0.0250244,0.0305176,0.0726318,0.0323486,0.0247192,0.0418091,0.0167847,0.0140381,-0.0375366,0.000915527,-0.0180054,-0.00976562,0.0244141
120,1,0.0289917,0.0299072,0.0238037,0.0390625,0.0457764,0.0256348,0.020752,0.0332642,0.017395,0.0149536,-0.0289917,0.0180054,0.0338745
120,2,0.0256348,0.0152588,0.0177002,0.0219727,0.0286865,0.0601196,0.0131226,0.0177002,0.0140381,0.0115967,-0.0119019,0.0247192,0.00579834
120,3,0.0180054,0.00366211,0.0262451,0.0308228,0.0308228,0.0262451,0.0204468,0.0268555,0.000610352,0.0143433,-0.0292969,0.0326538,0.0323486
120,4,0.0338745,0.0354004,0.0247192,0.017395,0.0268555,0.0366211,0.0326538,0.0213623,0.0131226,0.0213623,-0.0268555,0.0164795,0.0244141
121,0,0.0177002,0.000305176,0.0393677,0.0308228,0.0430298,0.0332642,0.0189209,0.0598145,0.00976562,0.0283813,-0.0247192,0.0115967,0.0231934
121,1,0.012207,0.0152588,0.0189209,0.0326538,0.020752,0.0308228,0.0323486,0.0244141,0.0137329,0.0115967,-0.0125122,0.0244141,0.0262451
121,2,0.0244141,-0.0302124,0.0286865,0.00823975,0.0238037,0.0296021,0.0338745,0.0170898,0.00579834,0.00732422,-0.0201416,0.0195312,0.0289917
121,3,0.0320435,0.0311279,0.0286865,0.0222778,0.0360107,0.0259399,0.038147,0.0177002,0.0100708,0.0411987,-0.0161743,0.0137329,0.0427246
121,4,0.0112915,0.0250244,0.0390625,0.0286865,0.0100708,0.0469971,0.0283813,0.0238037,-0.000915527,0.015564,-0.0244141,0.0177002,0.0152588
122,0,0.00579834,0.022583,0.0564575,0.0158691,0.0369263,0.0259399,0.0387573,0.032959,0.00366211,0.00762939,-0.022583,0.0161743,0.0286865
122,1,0.0335693,0.0247192,-0.0204468,0.0308228,0.0244141,0.0283813,0.0424194,0.0201416,0.032959,0.0112915,-0.0296021,0.0262451,0.0857544
122,2,0.0088501,0.0183105,0.0622559,0.0341797,0.0305176,0.0201416,0.0213623,0.0112915,-0.000305176,-0.000305176,-0.0274658,0.0238037,0.0332642
122,3,0.0247192,0.0332642,0.043335,0.0323486,0.0384521,0.0372314,0.0137329,0.0213623,0.00640869,0.0350952,-0.0204468,0.020752,0.0497437
122,4,0.0344849,0.0299072,0.0164795,0.0326538,0.032959,0.03479,0.0265503,0.0161743,-0.000915527,0.0167847,-0.022583,0.0442505,0.027771
123,0,0.0125122,0.022583,0.0256348,0.0106812,0.0280762,0.0335693,0.0189209,0.0280762,0.0143433,0.0134277,-0.0146484,0.0195312,0.0415039
123,1,0.0198364,0.0274658,0.0137329,0.0506592,0.0247192,0.0418091,0.0268555,0.0238037,0.00946045,0.0115967,-0.0323486,0.0585938,0.0390625
123,2,0.0265503,0.0372314,0.0253296,0.0463867,0.0183105,0.0219727,0.0289917,0.00946045,0.0308228,0.0231934,-0.017395,0.00244141,0.0305176
123,3,0.0366211,0.0286865,0.020752,0.0424194,0.0250244,0.03479,0.0341797,0.0219727,0.0152588,0.00274658,-0.0704956,0.0115967,0.0305176
123,4,0.0271606,0.0149536,0.0152588,0.0372314,0.0234985,0.0128174,0.0250244,-0.0183105,0.0183105,0.0183105,-0.00213623,0.0317383,0.0299072
124,0,0.0158691,0.0149536,0.0228882,0.0354004,0.0482178,0.0405884,0.0250244,0.0442505,0.0167847,0.0241089,-0.00762939,0.0228882,0.0323486
124,1,0.022583,0.0259399,0.0238037,0.0369263,0.0292969,0.0268555,0.0531006,0.0222778,0.00305176,0.038147,-0.0137329,0.00457764,0.027771
124,2,0.0421143,0.00671387,0.010376,-0.0384521,0.0204468,0.0335693,0.0350952,0.0183105,0.0256348,0.0158691,-0.0338745,0.00213623,0.0262451
124,3,0.0396729,0.020752,0.0195312,0.0418091,0.0363159,0.0195312,0.0390625,0.0314331,0.0616455,0.012207,-0.0177002,0.050354,0.0128174
124,4,0.0180054,0.00549316,0.0332642,0.0186157,0.022583,0.0369263,0.0210571,0.0369263,0.0128174,0.0302124,-0.0100708,0.0244141,0.104065
125,0,0.0262451,0.0164795,0.03479,0.0183105,0.0283813,0.0335693,0.0305176,0.0271606,-0.0170898,-0.000610352,-0.0140381,0.0292969,0.0320435
125,1,0.00518799,0.0350952,0.0131226,0.0531006,0.0317383,0.0265503,0.0396729,0.00762939,0.0222778,0.0180054,-0.0485229,0.0152588,0.0250244
125,2,0.03479,0.0125122,-0.00335693,0.0741577,0.0372314,0.012207,-0.0125122,0.0283813,0.00427246,0.0164795,-0.0149536,0.0210571,0.0299072
125,3,0.0152588,0.0308228,0.027771,0.0125122,-0.00671387,0.0259399,0.0418091,0.057373,-0.00671387,0.0128174,-0.0164795,0.0137329,0.0137329
125,4,0.0189209,0.0186157,0.00366211,0.0112915,0.0320435,0.109863,0.0125122,0.0195312,-0.00305176,0.0213623,-0.0170898,0.0180054,0.0109863
126,0,0.0296021,-0.00183105,0.0186157,0.0280762,0.0189209,0.0454712,0.0421143,0.0357056,0.03479,-0.00549316,-0.0219727,0.00579834,0.038147
126,1,0.00915527,0.0198364,0.00946045,0.0302124,0.0216675,0.0402832,0.0268555,0.0271606,0.0570679,0.0167847,-0.0189209,0.0567627,0.010376
126,2,0.0158691,0.0292969,0.0323486,0.0234985,0.0338745,0.0119019,0.017395,0.0253296,0.0198364,-0.0143433,-0.0357056,0.0125122,0.000915527
126,3,0.010376,0.0012207,0.000915527,0.0253296,0.0289917,0.0317383,0.0253296,0.0238037,0.00518799,0.0161743,-0.00396729,-0.027771,0.0238037
126,4,0.00335693,0.0390625,0.010376,0.0271606,0.0204468,0.0201416,0.017395,0.012207,0.0292969,0.0195312,-0.020752,0.00488281,0.0134277
127,0,0.00305176,0.0308228,0.0198364,0.0320435,0.0350952,0.0299072,0.0393677,0.0311279,0.0360107,0.0161743,-0.0350952,0.0219727,0.022583
127,1,0.0146484,0.0131226,0.0109863,0.0289917,0.0546265,0.0280762,0.0411987,0.0259399,0.0241089,0.0323486,-0.00610352,0.0259399,0.0192261
127,2,0.0308228,-0.0189209,0.0311279,0.0308228,0.0234985,0.0402832,0.0292969,-0.0131226,0.0219727,0.0149536,-0.0115967,0.0109863,0.020752
127,3,0.00518799,0.0183105,0.022583,0.0216675,0.0271606,0.0387573,0.0259399,0.0192261,0.0393677,0.00640869,-0.0247192,0.0149536,0.0268555
127,4,0.0210571,0.0384521,0.0259399,0.0344849,0.0323486,0.0372314,0.0567627,0.0164795,0.0189209,0.0350952,-0.0201416,0.0158691,0.0186157
128,0,0.0372314,0.0213623,0.0177002,0.0570679,0.0500488,0.0326538,0.0512695,0.0250244,0.0201416,0.0125122,-0.0128174,0.0167847,0.0158691
128,1,-0.0088501,0.0210571,0.0360107,0.0320435,0.0299072,0.038147,0.0613403,0.0204468,0.0250244,0.0180054,-0.022583,-0.00183105,0.022583
128,2,0.0167847,0.010376,0.00976562,0.0180054,0.0442505,0.0323486,0.0201416,0.0598145,0.0167847,0.0152588,-0.0350952,0.0125122,0.0186157
128,3,0.00946045,0.0201416,0.0213623,0.0274658,0.0357056,0.0341797,0.0396729,0.032959,0.0164795,0.0299072,-0.0186157,0.020752,0.00732422
128,4,0.0280762,-0.0106812,0.0244141,0.0164795,0.038147,0.022583,0.0308228,0.0280762,0.0195312,0.0271606,-0.0265503,0.0219727,0.0213623
129,0,0.038147,0.00335693,0.0317383,0.010376,0.0299072,-0.0427246,0.0247192,0.032959,0.0473022,0.0152588,-0.032959,0.0088501,0.0204468
129,1,0.0149536,0.0482178,0.0280762,0.0280762,0.0622559,0.0326538,0.0180054,0.0448608,0.0259399,0.0128174,-0.027771,0.012207,0.0445557
129,2,0.00976562,0.00732422,0.0195312,0.0241089,0.0439453,0.0115967,0.0323486,0.0250244,0.0161743,0.0158691,-0.0152588,0.0201416,0.0286865
129,3,0.000305176,0.0262451,0.0170898,0.00152588,0.0268555,0.0296021,0.0341797,0.0320435,0.00305176,-0.0201416,-0.0265503,0.0177002,0.0564575
129,4,-0.0146484,0.0268555,0.0250244,0.0210571,0.039978,0.0335693,0.0292969,0.0405884,0.0180054,0.0177002,-0.0253296,0.0204468,0.0134277
130,0,0.0146484,0.0723267,0.0115967,0.0112915,-0.0231934,0.0238037,0.0308228,0.00610352,0.015564,0.0369263,-0.0140381,0.0152588,0.0271606
130,1,0.00244141,0.0271606,0.0146484,0.0396729,0.0408936,0.0350952,0.00579834,0.0164795,0.0177002,0.00946045,-0.00915527,0.0238037,0.012207
130,2,0.0112915,0.0772095,0.0326538,0.012207,-0.00671387,0.0320435,0.0344849,0.0323486,-0.0192261,0.0100708,-0.0204468,0,0.00823975
130,3,0.0149536,0.0244141,0.0131226,0.0192261,0.015564,0.0180054,0.0408936,0.0326538,-0.000915527,0.0210571,-0.0265503,-0.0119019,0.0177002
130,4,0.0198364,0.0314331,0.0198364,0.039978,0.0616455,0.039978,0.0280762,0.0448608,0.0216675,0.0134277,-0.0244141,0.0244141,0.0228882
131,0,0.0161743,0.0302124,0.0152588,0.0253296,0.0283813,0.03479,0.038147,0.0396729,0.0372314,0.0219727,-0.0228882,0.00671387,0.0213623
131,1,0.0198364,0.0219727,0.0286865,0.0613403,0.0137329,0.0115967,-0.0137329,0.0180054,0.0219727,0.0128174,-0.0146484,0.0112915,0.00823975
131,2,0.0149536,0.0158691,0.0241089,0.0311279,0.0183105,0.0314331,0.0494385,0.0250244,0.0125122,0.00976562,-0.0286865,0.0210571,-0.0170898
131,3,0.0662231,0.0241089,0.0262451,0.0338745,0.0231934,0.050354,0.0314331,0.0302124,0.00549316,0.0247192,0.0152588,0.00976562,0.0140381
131,4,0.0167847,0.012207,0.00244141,0.0350952,0.0271606,0.0286865,0.0256348,0.0338745,0.0128174,0.0158691,-0.03479,0.022583,0.0143433
132,0,0.0161743,0.0234985,-0.0457764,0.03479,0.0314331,0.0289917,0.0164795,0.0308228,0.0219727,0.0256348,-0.0323486,0.0115967,0.010376
132,1,0.00213623,0.00305176,0.0119019,0.0286865,0.0265503,0.0506592,0.062561,0.0186157,0.0167847,0.0143433,-0.0250244,0.00640869,0.0177002
132,2,0.012207,0.0308228,0.020752,0.017395,0.0354004,0.0231934,0.0302124,0.0299072,0.0204468,0.0286865,-0.0247192,0.0189209,0.0180054
132,3,0.0146484,0.0271606,0.0265503,0.032959,0.0335693,0.0286865,0.0357056,0.0299072,0.0198364,0.00640869,-0.020752,0.00854492,-0.00518799
132,4,0.0305176,0.0198364,0.0216675,0.0308228,0.0286865,0.0296021,0.0256348,0.017395,0.0299072,0.0274658,-0.0292969,-0.0146484,0.0149536
133,0,0.0256348,0.0344849,0.0192261,0.0436401,-0.0253296,0.0234985,0.0238037,-0.00274658,0.0247192,0.0128174,0.0088501,0.0112915,0.0216675
133,1,0.0195312,0.0161743,0.00305176,0.0149536,0.0274658,0.0411987,0.0326538,0.0408936,0.0213623,0.0137329,-0.020752,-0.0274658,0.0134277
133,2,0.0439453,0.0167847,0.0247192,-0.0262451,0.0167847,0.0186157,0.0497437,0.0332642,0.0250244,0.0384521,0.00183105,0.00915527,0.0195312
133,3,0.0213623,0.0231934,0.0012207,0.0448608,0.0344849,0.020752,0.0271606,0.0241089,0.0338745,0.0109863,-0.0213623,0.0131226,0.0210571
133,4,0.010376,0.0247192,0.0515747,0.0302124,0.022583,-0.0292969,0.039978,0.0320435,0.0390625,0.0360107,-0.020752,0.0167847,0.020752
134,0,0.00274658,0.0274658,0.0161743,-0.0134277,0.0363159,0.0372314,0.0543213,0.0234985,0.0231934,0.0167847,-0.0170898,0.0192261,0.0088501
134,1,0.0317383,0.017395,0.0183105,0.0137329,0.0378418,0.0323486,0.0283813,0.0259399,0.0262451,0.0183105,-0.0369263,0.0115967,0.00274658
134,2,0.0106812,0.0323486,0.0338745,0.0292969,0.0259399,-0.00305176,0.0152588,0.0241089,0.0674438,0.0326538,-0.0143433,0.0012207,0.0140381
134,3,0.00854492,0.0177002,0.0167847,0.0177002,0.0167847,0.0387573,0.0259399,0.0241089,0.0271606,0.0250244,0.010376,0.0201416,-0.00183105
134,4,0.0186157,-0.0180054,0.0234985,0.0253296,-0.0228882,0.0439453,0.020752,0.0283813,0.0250244,0.00823975,-0.0216675,0.0296021,0.00854492
135,0,0.0500488,0.0244141,0.0198364,0.062561,0.0296021,0.0335693,0.0140381,0.0350952,0.03479,0.0286865,-0.0549316,-0.012207,0.0180054
135,1,0.0189209,0.00671387,0.0222778,0.015564,0.0341797,0.032959,0.0289917,0.0195312,0.0430298,0.0192261,-0.0189209,0.0170898,0.00183105
135,2,0.0256348,0.0286865,0.0286865,0.0186157,0.0164795,0.0167847,0.0183105,0.0332642,0.0247192,0.0372314,-0.0289917,0.0289917,-0.03479
135,3,0.0375366,0.0262451,0,0.0375366,0.00946045,-0.00335693,0.0418091,0.0296021,0.03479,0.0299072,-0.0259399,0.0146484,0.0234985
135,4,0.0192261,0.017395,0.0375366,0.032959,0.0198364,0.0262451,0.0198364,0.0216675,0.0439453,0.0631714,-0.0186157,0.0152588,0.00457764
136,0,0.0210571,0.0250244,0.0140381,0.0271606,0.0256348,0.0344849,0.0344849,0.0357056,0.045166,0.0228882,-0.015564,0.0149536,0.00305176
136,1,0.0146484,0.020752,0.0183105,0.0198364,0.0460815,0.0241089,0.032959,0.0366211,0.0341797,0.017395,-0.020752,-0.0219727,0.0143433
136,2,0.0210571,0.0100708,0.0219727,0.00488281,0.0280762,0.0289917,0.0238037,0.0326538,0.0372314,0.0271606,-0.0274658,0.00976562,0.0192261
136,3,0.0177002,0.0143433,-0.00732422,0.015564,0.0286865,0.022583,0.0415039,0.0360107,0.0149536,0.0320435,-0.0302124,0.0152588,0.0088501
136,4,0.0241089,0.0125122,0.0195312,0.0195312,0.0408936,0.0363159,0.03479,0.0177002,0.0512695,0.0366211,-0.0259399,0.0198364,0.0238037
137,0,0.0192261,0.0588989,0.0259399,0.0244141,0.078125,0.0164795,0.0424194,0.0390625,0.0430298,0.0357056,-0.0213623,-0.000305176,0.0115967
137,1,0.0280762,0.0231934,0.0296021,0.0170898,0.0201416,0.0286865,0.0338745,0.0332642,0.00610352,0.0274658,-0.0375366,0.0375366,-0.00152588
137,2,0.0195312,0.0305176,0.0253296,0.00915527,0.0891113,0.0286865,0.0338745,0.00854492,0.0320435,0.0259399,-0.0344849,0.0109863,0.0134277
137,3,0.0149536,0.0167847,0.0152588,0.00427246,0.0128174,0.0289917,0.0134277,0.03479,0.0366211,0.0234985,-0.0280762,0.0167847,0.0357056
137,4,0.0286865,0.0390625,0.0256348,0.0106812,0.0357056,0.0305176,0.032959,0.03479,0.0259399,0.03479,-0.0296021,0.015564,0.0119019
138,0,0.022583,0.0219727,0.0183105,0.00823975,0.0262451,0.0283813,0.0228882,0.0341797,0.0924683,0.0308228,-0.0170898,0.000610352,0.015564
138,1,0.0186157,0.012207,0.0253296,0.0137329,0.0201416,0.0244141,0.0335693,0.038147,0.0311279,-0.010376,-0.0280762,0.0250244,0.00518799
138,2,0.0115967,0.0231934,0.0244141,0.0119019,0.0296021,0.0375366,0.0421143,0.0262451,0.0262451,0.0494385,-0.0158691,0.00640869,0.010376
138,3,0.0238037,-0.0326538,0.0109863,0.0106812,0.0692749,0.0256348,0.0271606,0.000915527,0.0363159,0.0274658,-0.0262451,0.0253296,0.0119019
138,4,0,0.0262451,0.0302124,0.00915527,0.0204468,0.015564,0.0476074,0.0323486,0.0534058,0.0222778,-0.0189209,0.0186157,0.0134277
139,0,0.0241089,0.00396729,0.0231934,0.0167847,0.017395,0.0088501,0.0323486,-0.00488281,0.0372314,0.0299072,-0.00213623,0.0268555,0.0109863
139,1,0.0302124,0.0115967,0.010376,0.0189209,0.0167847,0.0302124,0.0256348,0.03479,0.0274658,0.0256348,-0.0286865,0.0201416,0.017395
139,2,0.00915527,0.0146484,0.0296021,0.027771,0.0149536,0.017395,0.0341797,0.0296021,0.0372314,0.0256348,-0.0341797,0.00152588,0.0152588
139,3,0.0283813,0.0152588,0.0289917,0.0137329,0.0137329,0.0906372,0.0387573,0.0314331,-0.0375366,0.0280762,-0.0274658,0.0283813,0.0250244
139,4,0.0250244,0.0195312,0.0256348,0.0143433,0.0119019,0.0393677,0.0354004,0.022583,0.0747681,0.0161743,-0.0262451,0.0393677,0.0289917
140,0,0.0271606,0.0241089,-0.043335,0.0140381,0.00640869,-0.0390625,0.0323486,0.0247192,0.0408936,0.0250244,-0.0183105,0.0146484,0.0152588
140,1,0.022583,0.0140381,0.0219727,0.017395,0.00396729,0.0180054,0.0250244,0.0338745,0.0283813,0.0192261,-0.0439453,0.0143433,0.0363159
140,2,0.0143433,0.00946045,0.0119019,0.015564,0.0250244,0.0265503,0.0262451,0.0186157,0.0180054,0.0354004,-0.0366211,0.00366211,0.0192261
140,3,0.00579834,0.0238037,-0.0131226,0.022583,0.0131226,0.0137329,0.0369263,0.0195312,0.0402832,0.0323486,-0.032959,0.017395,0.0558472
140,4,0.0357056,0.017395,0.0134277,0.0219727,-0.00518799,0.0100708,0.0302124,0.0439453,0.027771,0.0473022,-0.0344849,0.017395,-0.00244141
141,0,0.0253296,0.0280762,0.00823975,0.0143433,0.0286865,0.0308228,0.0271606,0.0430298,0.0161743,0.0280762,-0.0292969,0.0149536,0.017395
141,1,0.0262451,0.0219727,0.027771,0.00518799,0.0341797,0.0201416,0.0292969,0.0216675,0.0274658,0.0408936,-0.0140381,0.0299072,0.0241089
141,2,0.0283813,0.0183105,0.0143433,0.0469971,0.0106812,0.0262451,0.022583,0.0195312,0.0320435,0.0204468,-0.0323486,0.0183105,0.0241089
141,3,0.00579834,0.0289917,0.0231934,0.0170898,0.0247192,0.0183105,0.0289917,0.0238037,0.0311279,0.0274658,-0.0302124,0.0189209,0.015564
141,4,0.0357056,0.0332642,0.0195312,0.00701904,0.00152588,0.0128174,0.0253296,0.045166,0.039978,0.0228882,-0.0305176,0.0012207,0.0198364
142,0,0.0628662,0.0183105,0.0286865,-0.0860596,0.0100708,0.0238037,0.0436401,0.0311279,0.0366211,0.0454712,-0.0543213,0.010376,0.0146484
142,1,0.0234985,-0.0457764,0.0231934,0.0106812,0.0219727,0.0222778,0.0311279,0.0308228,0.0308228,0.0268555,-0.0299072,0.0234985,0.00244141
142,2,0.0192261,0.0112915,0.0683594,0.0238037,0.022583,-0.0262451,0.0372314,0.0189209,0.0344849,0.0558472,-0.0210571,0.0262451,0.0274658
142,3,0.0299072,0.00915527,0.0109863,0.010376,0.020752,0.00366211,0.0119019,0.027771,-0.00640869,0.0482178,-0.0213623,0.00213623,0.0198364
142,4,0.0415039,0.0341797,0.0363159,0.0311279,0.0119019,0.0244141,0.0292969,0.0311279,0.0354004,0.0308228,0.0106812,0.0149536,0.00823975
143,0,0.0210571,0.00793457,0.0256348,0.0119019,0.0302124,0.0210571,0.0222778,0.010376,0.0283813,0.0769043,-0.015564,0.0134277,-0.00457764
143,1,0.0643921,0.0158691,0.0167847,0.0335693,0.0140381,0.027771,0.0109863,0.0402832,0.0415039,0.0372314,-0.0238037,0.0289917,0.0274658
143,2,0.0302124,0.0125122,0.0128174,0.0253296,0.0186157,-0.0195312,0.0234985,0.0262451,0.0640869,0.0186157,-0.0335693,0.0717163,0.0177002
143,3,0.0299072,0,0.0283813,0.017395,0.0125122,0.0259399,0.0140381,0.0515747,0.0210571,0.0268555,-0.0311279,0.0234985,0.0164795
143,4,0.0186157,0.0112915,0.0149536,0.00396729,0.0088501,0.0402832,0.0283813,0.0262451,0.00946045,0.0445557,-0.0259399,0.0326538,0.00793457
144,0,0.0253296,0.0198364,0.0238037,0.0286865,0.0152588,0.0323486,0.0308228,0.020752,0.0219727,0.0280762,-0.0222778,0.0924683,0.0234985
144,1,0.0308228,0.0326538,-0.00457764,0.0222778,-0.015564,0.0152588,0.0259399,0.0317383,0.0198364,0.0378418,-0.0286865,0.0369263,0.0164795
144,2,0.017395,0.020752,0.0323486,0.0314331,0.0216675,0.0219727,0.0192261,0.0372314,0.0344849,0.0314331,-0.0228882,0.0244141,0.0286865
144,3,-0.0186157,0.0283813,0.0244141,0.0149536,0.00427246,0.0375366,0.0219727,0.0283813,0.0299072,0.0366211,-0.0509644,0.0283813,0.0143433
144,4,0.0195312,0.0106812,0.0350952,0.0228882,0.0198364,-0.0128174,0.0283813,0.022583,0.0341797,0.0350952,-0.0167847,0.0265503,0.0283813
145,0,0.0564575,0.022583,0.0146484,0.0152588,0.0238037,0.0283813,0.0195312,0.0790405,0.0405884,0.0222778,-0.0332642,0.0146484,0.0238037
145,1,0.0289917,0.0158691,0.00640869,0.00701904,0.00946045,0.0213623,0.0167847,0.0164795,0.0341797,0.0222778,-0.0234985,0.0195312,0.0210571
145,2,0.00671387,0.0460815,0.0088501,0.0180054,0.0198364,0.0189209,0.0323486,0.0131226,0.0311279,0.0906372,-0.0500488,0.0189209,0.0619507
145,3,0.039978,0.020752,0.0186157,0.0292969,0.0109863,0.010376,0.0177002,0.0308228,0.0366211,0.00610352,-0.03479,0.0268555,0.0259399
145,4,0.0363159,0.0296021,0.012207,0.0186157,-0.000305176,0.0271606,0.0656128,0.027771,0.0317383,0.00762939,-0.0228882,0.0289917,0.0286865
146,0,0.039978,-0.000915527,0.0186157,0.020752,0.0149536,0.0369263,0.0244141,0.0430298,0.0323486,0.0332642,-0.0286865,0.0088501,0.0125122
146,1,0.012207,0.0195312,0.0125122,0.0582886,0.00396729,0.0186157,0.0228882,0.0146484,0.0274658,0.0424194,-0.0408936,0.0317383,0.0253296
146,2,0.0338745,0.00823975,0.0146484,0.0177002,0.0256348,0.0250244,0.0238037,-0.0177002,0.0183105,0.0311279,-0.0335693,0.017395,0.0210571
146,3,0.0341797,0.0289917,0.022583,0.0183105,0.00671387,0.015564,0.0311279,0.0292969,0.0109863,0.0253296,-0.0457764,0.072937,0.0161743
146,4,0.0341797,0.0772095,0.0299072,0.0241089,-0.0170898,0.022583,0.0177002,0.0317383,0.0262451,0.0360107,-0.0445557,0.0335693,0.0131226
147,0,0.050354,0.0170898,0.0088501,0.0265503,0.017395,0.0283813,0.0308228,0.0210571,0.0250244,0.0244141,-0.0460815,0.0296021,0.0360107
147,1,0.0283813,0.0421143,-0.0326538,0.0149536,-0.00427246,0.0283813,0.0253296,0.0234985,0.032959,0.0296021,-0.0430298,0.00915527,0.0415039
147,2,0.0134277,0.0189209,0.0125122,0.0286865,0.015564,0.0161743,-0.0195312,0.0283813,0.0296021,0.0323486,-0.0292969,0.032959,0.0332642
147,3,0.0292969,0.0305176,0.0143433,0.0326538,-0.0488281,0.0274658,0.0259399,0.0137329,0.0143433,0.043335,-0.0457764,0.0305176,0.0222778
147,4,0.0427246,0.0088501,0.0164795,-0.00976562,0.0311279,0.0259399,-0.0192261,0.0262451,0.0213623,0.0601196,-0.0372314,0.0286865,0.0787354
148,0,0.0411987,0.0231934,0.0213623,0.0268555,0.0128174,0.0177002,0.0210571,-0.0268555,0.0369263,0.027771,-0.0436401,0.0405884,0.0372314
148,1,0.0326538,0.0286865,0.0201416,0.0366211,0.0210571,0.0308228,0.0137329,0.0134277,0.0186157,0.0415039,-0.0149536,0.0271606,0.0527954
148,2,0.0354004,0.0268555,0.0189209,0.0088501,0.00671387,0.020752,0.0152588,0.0708008,0.0216675,0.0396729,-0.0366211,0.0332642,0.0268555
148,3,0.0302124,0.0485229,0.0424194,0.0177002,0.0408936,0.0250244,0.0112915,0.0350952,0.0274658,0.0415039,-0.0402832,0.0390625,0.0314331
148,4,0.0283813,0.0302124,0.020752,0.0308228,0.0149536,0.0338745,0.0372314,0.0299072,0.0308228,0.0769043,-0.0357056,0.0354004,0.06073
149,0,0.0250244,0.0228882,0.0296021,0.0299072,0.0140381,0.0592041,0.0274658,0.022583,0.0476074,0.0357056,-0.0366211,0.0244141,0.0213623
149,1,0.0457764,0.0186157,0.0323486,0.0241089,0.00610352,0.00549316,0.015564,0.0332642,0.0393677,0.0436401,-0.0253296,0.0250244,0.0289917
149,2,0.0265503,0.0408936,0.0344849,0.0231934,0.0192261,-0.00579834,0.0238037,0.03479,-0.0100708,0.0292969,-0.0253296,-0.0143433,0.0454712
149,3,0.0390625,0.0314331,0.0689697,0.00457764,0.0265503,0.0588989,0.0323486,0.0265503,0.0241089,0.0387573,-0.03479,0.0302124,0.0350952
149,4,0.0265503,0.0335693,0.0234985,0.00701904,0.00793457,0.0265503,0.0198364,0.0302124,0.0231934,0.0802612,-0.0302124,0.0274658,0.017395
150,0,0.0146484,0.0222778,0.0195312,0.00640869,0.0161743,0.0183105,0.0299072,0.0286865,0.0219727,0.0219727,-0.0463867,0.0326538,0.020752
150,1,0.0146484,0.0445557,0.0149536,0.000610352,0.00396729,0.0119019,0.00732422,0.0311279,0.0280762,0.0299072,-0.0366211,0.0274658,-0.0167847
150,2,0.0317383,0.0326538,0.0302124,0.00457764,0.0195312,-0.0262451,0.00427246,0.0234985,-0.00976562,0.0308228,-0.0256348,0.0762939,0.0286865
150,3,-0.0195312,0.0476074,0.0396729,0.00579834,0.0213623,0.0234985,0.0183105,0.0192261,0.0167847,0.0476074,-0.0308228,0.03479,0.0280762
150,4,0.0311279,0.0338745,0.0198364,0.0219727,0.00335693,0.0302124,0.0204468,0.0259399,0.0317383,0.0241089,-0.0268555,0.0314331,0.0344849
151,0,0.0567627,0.0296021,0.0250244,0.00701904,0.022583,0.0234985,0.00915527,0.0180054,0.0265503,0.0341797,-0.00671387,0.0222778,0.032959
151,1,0.0323486,0.0238037,0.012207,0.0238037,0.00640869,0.0100708,0.00976562,0.0158691,0.015564,0.0216675,-0.043335,0.0109863,0.0369263
151,2,0.0350952,0.0177002,0.0268555,0.0274658,0.038147,0.0112915,0.017395,0.0350952,0.0189209,0.0250244,-0.0396729,0.032959,0.0247192
151,3,0.0378418,0.0268555,0.0180054,0.0164795,0.0204468,0.0253296,0.00183105,0.0204468,0.0299072,0.0567627,-0.0344849,0.0256348,0.0695801
151,4,0.0396729,0.0186157,0.0317383,0.00671387,0.0308228,0.0167847,0.0186157,0.0198364,0.0134277,0.03479,-0.0723267,0.0271606,0.032959
152,0,0.0323486,0.0289917,0.0195312,0.0222778,0.022583,0.0125122,0.0292969,0.0125122,0.0488281,0.0311279,-0.0402832,-0.00457764,0.0253296
152,1,0.0848389,0.0131226,0.0234985,0.0247192,0.022583,0.0158691,0.000915527,0.0198364,0.0222778,0.0338745,-0.0280762,0.0204468,0.038147
152,2,0.0540161,0.0350952,0.012207,0.0100708,0.0131226,0.0140381,0.0140381,-0.0186157,0.0570679,0.0439453,-0.0601196,0.0384521,0.0454712
152,3,0.0509644,0.0305176,0.0204468,-0.0335693,0.0189209,0.0262451,0.020752,0.0384521,0.0216675,0.0411987,-0.0369263,0.0305176,0.0390625
152,4,0.0286865,0.0415039,0.0442505,0.0112915,0.0152588,-0.00793457,0.0308228,0.027771,0.0341797,0.0637817,-0.0323486,0.0323486,0.0280762
153,0,0.0265503,0.0259399,-0.038147,0.00915527,0.0167847,0.0201416,0.00640869,0.0180054,0.0152588,0.0302124,-0.0283813,0.0231934,0.0418091
153,1,0.0408936,0.0299072,0.0222778,0.0128174,0.0219727,0.0244141,0.0265503,-0.0012207,-0.00518799,0.0421143,-0.0457764,0.0128174,0.0402832
153,2,0.0335693,0.0436401,0.0216675,0.0112915,0.0222778,0.00701904,-0.00244141,0.0204468,0.0253296,-0.0143433,-0.03479,0.0387573,-0.045166
153,3,0.027771,0.0769043,0.0280762,0.0167847,0.0372314,0.0268555,0.0222778,-0.0180054,0.0308228,0.0454712,-0.0387573,0.0292969,0.0317383
153,4,0.0198364,0.0363159,0.0280762,0.0158691,0.0149536,-0.00274658,0.0189209,0.0106812,0.0256348,0.0265503,-0.0317383,0.000610352,0.0311279
154,0,0.0241089,0.027771,0.0576782,0.0244141,0.017395,0.0253296,0.0170898,0.0170898,0.0198364,0.0372314,-0.0350952,0.0357056,0.0360107
154,1,0.0396729,0.0247192,0.0436401,0.00823975,-0.00305176,-0.03479,0.0180054,0.0286865,0.0610352,0.0195312,-0.0393677,0.0466919,0.043335
154,2,0.00518799,0.0299072,-0.0164795,0.012207,0.0183105,0.0143433,0.0289917,0.0204468,0.0750732,0.0463867,-0.0253296,0.100098,0.0299072
154,3,0.0396729,-0.0286865,0.0576782,0.0335693,0.0561523,-0.0100708,0.0308228,0.0231934,0.0247192,0.0286865,-0.0286865,0.0335693,0.0140381
154,4,0.0366211,0.0198364,0.0177002,0.0219727,0.00518799,0.0088501,0.017395,0.0234985,0.0274658,0.0228882,-0.0421143,0.0335693,0.0457764
155,0,0.0518799,0.0189209,0.0296021,0.0256348,0.0152588,0.0134277,0.00488281,-0.020752,0.0183105,0.0326538,-0.0314331,0.0186157,0.0302124
155,1,0.0421143,0.0238037,0.0323486,0.0491333,0.020752,0.0204468,0.0180054,0.0152588,0.00488281,0.0192261,-0.0360107,0.0305176,0.0357056
155,2,0.0317383,0.0558472,0.0317383,0.03479,0.0283813,0.0253296,0.0146484,0.0582886,0.0204468,0.0335693,-0.0271606,0.0296021,0.0244141
155,3,0.0265503,-0.00244141,0.0256348,0.0268555,0.017395,0.0216675,0.00488281,0.0195312,0.0146484,0.0442505,-0.0338745,0.0415039,0.0302124
155,4,0.0265503,0.0338745,0.0500488,0.0219727,0.0283813,0.00457764,0.0198364,0.0158691,0.0265503,0.0299072,-0.0286865,0.0439453,0.0408936
156,0,0.0146484,0.032959,0.0326538,0.0216675,0.03479,0.0161743,0.0228882,-0.00244141,0.0164795,0.0445557,-0.0241089,0.0228882,-0.00579834
156,1,0.0354004,0.00427246,0.0283813,0.0479126,0.0643921,0.0228882,0.0305176,0.0195312,0.0146484,-0.000610352,-0.0320435,0.0241089,0.0289917
156,2,0.0274658,0.0228882,0.0341797,0.0457764,0.000915527,0.00823975,0.065918,0.0177002,0.00793457,-0.0265503,-0.0317383,0.0473022,0.038147
156,3,0.0222778,0.0262451,0.022583,0.0460815,0.0192261,0.0216675,0.0256348,0.00854492,0.0198364,0.027771,-0.0198364,0.0210571,0.0430298
156,4,0.0387573,0.0234985,0.0198364,0.0219727,0.017395,0.015564,0.0140381,0.0320435,0.0134277,0.0320435,-0.0299072,0.0210571,0.0546265
157,0,0.0271606,0.03479,0.0366211,0.0366211,0.0164795,-0.0088501,0.0115967,0.0195312,-0.0234985,0.0219727,-0.0311279,0.06073,0.0378418
157,1,0.015564,0.0195312,0.015564,0.0436401,0.0192261,0.0427246,0.0186157,0.022583,0.0387573,0.0241089,-0.0396729,0.055542,0.0280762
157,2,0.0228882,0.0198364,0.0201416,0.0283813,0.0134277,0.000305176,0.0167847,0.017395,0.00976562,0.0289917,-0.0302124,-0.00793457,0.0143433
157,3,0.0216675,0.0479126,0.0961304,0.0247192,0.00762939,0.0482178,0.00946045,0.0228882,0.0146484,0.0192261,-0.0384521,0.0164795,0.0344849
157,4,0.0799561,0.0323486,0.0244141,0.0860596,0.0421143,0.0201416,-0.0415039,0.0274658,0.015564,0.0137329,-0.0744629,0.0326538,0.0320435
158,0,0.038147,0.0128174,0.0289917,0.039978,0.0866699,0.0231934,0.0198364,0.032959,0.00335693,0.0274658,-0.0283813,0.0131226,0.0357056
158,1,0.0314331,0.0253296,0.0418091,0.0445557,0.00946045,0,0.0161743,0.00671387,0.0265503,0.0299072,-0.0299072,0.0152588,0.0372314
158,2,0.0317383,-0.0137329,0.038147,0.0405884,0.0170898,0.0109863,-0.00854492,0.0125122,0.010376,0.0341797,-0.0402832,0.0296021,0.0518799
158,3,0.03479,0.0372314,0.0363159,0.0314331,-0.00946045,-0.00640869,0.0115967,-0.0305176,0.027771,0.0137329,-0.0332642,0.0250244,0.0299072
158,4,0.0448608,0.0198364,0.0393677,0.0415039,0.0332642,0.0137329,0.0137329,0.0308228,0.0128174,0.0128174,-0.000610352,0.027771,0.0372314
159,0,0.0390625,0.0323486,0.0286865,0.0457764,0.0332642,0.0314331,-0.0228882,0.0100708,0.0213623,0.0286865,-0.0250244,0.0198364,0.0289917
159,1,0.045166,0.0390625,0.0247192,0.0424194,0.0164795,0.0180054,0.0219727,0.00579834,0.0454712,0.0158691,-0.0195312,0.0317383,0.0332642
159,2,0.0405884,0.0213623,0.0350952,0.0485229,0.0183105,0.0177002,0.0283813,0.0189209,0.0265503,0.0109863,-0.0311279,0.0170898,0.0213623
159,3,0.0488281,0.0134277,0.0338745,0.062561,0.0231934,0.0241089,0.0286865,0.0100708,0.0177002,0.0250244,0.0204468,0.0186157,0.0180054
159,4,0.0183105,0.0231934,0.0473022,0.0454712,0.0247192,0.0320435,0.0256348,0.0262451,0.010376,0.0119019,-0.06073,0.0115967,0.0198364
160,0,0.0146484,0.0131226,0.0183105,0.0479126,0.0338745,0.0411987,0.0167847,-0.000915527,0.0726318,0.0271606,-0.0231934,0.0012207,0.0302124
160,1,0.0354004,0.0289917,0.0195312,0.050354,0.0302124,0.00549316,0.0238037,0.0189209,-0.0183105,0.0213623,-0.0186157,0.0735474,0.0180054
160,2,0.0320435,0.0112915,0.0363159,0.0424194,0.0262451,0.0259399,0.0131226,0.0259399,0.00762939,0.00457764,0.00976562,0.010376,0.0317383
160,3,0.0411987,0.0158691,0.0302124,0.0476074,0.0213623,0.015564,0.0274658,0.020752,0.0161743,0.022583,-0.0384521,0.0177002,0.043335
160,4,0.0390625,0.0366211,0.0445557,0.0012207,0.0418091,0.0164795,-0.00579834,0.00823975,0.0134277,0.0119019,-0.0375366,0.0265503,0.0134277
161,0,0.0271606,0.0164795,0.0332642,0.0256348,-0.00671387,0.0170898,0.0357056,0.0146484,0.015564,0.0146484,-0.0259399,0.0408936,0.0152588
161,1,0.0186157,0.0720215,0.0274658,0.03479,-0.032959,0.0210571,0.0244141,0.0698853,0.0119019,0.0250244,-0.0192261,0.0198364,0.0189209
161,2,0.0360107,-0.0479126,0.015564,0.032959,0.00335693,0.0448608,0.0238037,0.0222778,0.00946045,-0.000305176,-0.0143433,0.0152588,0.0253296
161,3,0.022583,0.0222778,0.0311279,0.0341797,0.0735474,0.0265503,0.0250244,0.062561,0.0192261,0.0283813,-0.00640869,0.0210571,0.0296021
161,4,0.00640869,0.0299072,0.0244141,0.0219727,0.0357056,0.0170898,0.0369263,0.0119019,0.0158691,0.0131226,-0.0189209,0.0396729,0.0216675
162,0,0.0354004,0.0259399,0.104065,0.0448608,0.0256348,0.0814819,0.0332642,0.0271606,0.0341797,0.0158691,-0.0250244,0.0222778,0.0341797
162,1,0.0491333,0.0274658,0.0411987,0.0405884,0.0317383,0.0180054,0.0167847,0.00823975,0.00915527,0.0131226,-0.0579834,0.0402832,0.0357056
162,2,0.0259399,0.0259399,0.0311279,0.020752,0.0253296,0.0274658,0.0531006,0.0219727,0.0247192,0.0308228,-0.0210571,0.0537109,0.0445557
162,3,0.0192261,0.0192261,0.0408936,0.0576782,0.0543213,0.0274658,0.0213623,0.00366211,0.0393677,0.012207,-0.0100708,0.00976562,0.0402832
162,4,-0.0213623,0.022583,0.0186157,-0.00549316,0.0372314,0.0259399,-0.0292969,0.0228882,0.0213623,-0.0430298,-0.0167847,0.0183105,-0.010376
163,0,0.0213623,0.0323486,0.0283813,0.0244141,0.0268555,0.0134277,0.0100708,0.0134277,0.0192261,0.0799561,-0.0311279,0.0238037,0.0918579
163,1,0.0366211,0.0262451,0.0604248,0.0582886,0.0430298,0.0344849,0.0234985,0.020752,0.0128174,0.0256348,-0.0219727,0.0241089,-0.0222778
163,2,0.0259399,0.0164795,0.0323486,0.0610352,0.020752,0.012207,0.0332642,0.00488281,0.0128174,0.0244141,-0.017395,0.0180054,-0.0286865
163,3,0.0244141,0.0289917,0.032959,0.0509644,-0.00976562,0.0259399,0.0253296,-0.00854492,0.0216675,0.000305176,-0.0265503,0.0372314,0.0424194
163,4,0.0350952,0.0250244,0.0408936,0.0436401,0.038147,0.0384521,0.00640869,0.0137329,0.0198364,0.0128174,-0.0161743,0.0146484,0.0292969
164,0,-0.015564,0.0375366,0.03479,0.0430298,0.0344849,0.0299072,0.0128174,0.0204468,0.022583,0.0164795,-0.00488281,0.0268555,0.0247192
164,1,0.0320435,0.0393677,0.0268555,0.0354004,0.0415039,0.0164795,0.0115967,0.0219727,0.00976562,-0.0128174,-0.0201416,0.0311279,0.0354004
164,2,0.0241089,0.0372314,0.0265503,0.0439453,-0.0100708,0.0259399,0.0158691,0.0396729,0.00762939,0.0164795,-0.0109863,0.0558472,0.0305176
164,3,0.00946045,0.0354004,0.0344849,0.0494385,0.0500488,0.0372314,0.0311279,0.0213623,0.00640869,0.03479,-0.00335693,0.0192261,0.0366211
164,4,0.0350952,0.0378418,0.0439453,0.0247192,0.0253296,0.0637817,0.0244141,0.0296021,-0.0299072,0.0286865,-0.0250244,0.0308228,0.0466919
165,0,0.0280762,0.00946045,0.0350952,0.0415039,0.0469971,0.0259399,0.0283813,0.010376,0.0216675,-0.045166,-0.0354004,0.0320435,0.0415039
165,1,0.0280762,0.0915527,0.0247192,0.0405884,0.0585938,0.0357056,0.0201416,0.0192261,0.0128174,0.0274658,-0.00793457,0.0338745,0.0189209
165,2,-0.0149536,0.0363159,0.0216675,0.00366211,0.0341797,0.0527954,0.0100708,0.0289917,0.0152588,0.0592041,-0.0112915,0.0299072,0.0384521
165,3,0.022583,0.0442505,0.0283813,0.0384521,-0.000610352,0.0234985,0.0247192,0.000305176,0.020752,0.015564,-0.0524902,0.0189209,0.0265503
165,4,0.022583,0.0234985,0.0265503,0.0247192,0.0384521,0.0219727,0.0143433,0.0128174,0.0250244,0.0228882,-0.0201416,0.03479,0.0299072
166,0,0.027771,0.0302124,0.0244141,0.0390625,0.010376,0.0323486,0.0262451,0.0442505,0.022583,0.0131226,-0.032959,0.0128174,0.0271606
166,1,0.0238037,-0.0106812,0.0286865,0.0372314,-0.00854492,0.0216675,0.0231934,-0.043335,0.0189209,0.0112915,-0.0390625,0.0332642,0.0253296
166,2,0,0.0323486,0.0396729,0.0643921,0.0372314,0.0317383,0.0109863,0.0164795,0.0100708,-0.00732422,-0.0411987,0.0213623,-0.0430298
166,3,0.0253296,0.0283813,0.017395,0.0317383,0.0378418,0.00701904,0.0262451,0.0253296,0.00274658,0.0186157,-0.0234985,0.0698853,0.0238037
166,4,0.0418091,0.0253296,0.0274658,-0.00640869,0.0366211,0.0280762,0.0296021,0.00701904,0.0109863,0.00274658,-0.0140381,0.0201416,0.0198364
167,0,0.0238037,0.0289917,0.0640869,0.0445557,0.045166,0.0296021,0.027771,0.0219727,0.0115967,0.0476074,-0.0219727,0.0283813,0.038147
167,1,0.0228882,0.015564,-0.0387573,0.043335,0.0485229,-0.0149536,0.0280762,0.0161743,0.0140381,0.0119019,-0.0262451,0.0253296,0.0323486
167,2,0.0241089,0.0213623,0.0238037,0.0485229,0.0204468,0.0488281,0.0161743,0.0201416,0.00946045,0.0244141,-0.0216675,0.015564,0.0180054
167,3,0.0167847,0.0296021,0.0741577,0.0439453,0.0387573,0.0393677,0.03479,0.0268555,0.0115967,0.00701904,-0.0262451,0.0296021,0.0506592
167,4,0.0305176,0.0296021,0.0265503,-0.00732422,0.0357056,0.0286865,0.0454712,0.0158691,0.0201416,0.06073,-0.0161743,0.0256348,0.0616455
168,0,0.0247192,0.00915527,0.0387573,0.038147,0.0390625,0.0335693,0.0268555,0.0177002,0.0469971,0.0222778,-0.0186157,0,0.0222778
168,1,0.0311279,0.0231934,0.027771,0.0592041,0.0305176,0.0253296,0.0170898,0.0408936,0.0274658,0.015564,-0.0259399,0.0219727,0.0317383
168,2,0.0213623,0.0366211,0.020752,0.0344849,0.0189209,0.0274658,0.043335,0.0308228,0.0143433,-0.0012207,-0.0479126,0.0250244,0.0241089
168,3,0.0112915,0.0213623,0.0241089,0.0344849,0.03479,0.0256348,0.0265503,-0.000610352,0.00640869,0.017395,0.0360107,0.0128174,0.0320435
168,4,0.0146484,0.0143433,0.0305176,0.0378418,0.0405884,0.0546265,0.0466919,0.0244141,0.106506,0.0146484,-0.0234985,-0.0442505,0.0143433
169,0,0.0177002,0.0131226,0.0222778,0.0366211,0.0262451,0.039978,0.0219727,0.0259399,0.00213623,0.0134277,-0.0344849,0.0726318,0.0378418
169,1,0.0390625,0.0323486,-0.00457764,0.0247192,0.0369263,0.0335693,0.0296021,0.0106812,0.0180054,0.0198364,-0.0115967,0.0222778,-0.0262451
169,2,0.00854492,0.0274658,0.0204468,0.0372314,0.0292969,0.0213623,0.00549316,0.0210571,0.0350952,0.00610352,0.000305176,0.0167847,0.0357056
169,3,0.0146484,0.027771,0.0140381,0.0161743,0.0289917,0.0289917,0.0234985,0.0338745,0.0238037,0.0115967,-0.0204468,0.00305176,0.0292969
169,4,-0.00396729,0.0363159,0.0210571,-0.0442505,0.039978,0.0292969,0.0262451,0.010376,0.0158691,0.00671387,-0.0088501,0.0222778,0.0262451
170,0,-0.0436401,0.0161743,0.0280762,0.0341797,0.0323486,0.03479,0.0183105,0.0167847,0.0271606,0.0109863,-0.0256348,0.0219727,0.0497437
170,1,0.0408936,0.0149536,0.0137329,0.0680542,0.0372314,0.0265503,0.0314331,0.0286865,0.0363159,0.0128174,-0.03479,0.0183105,0.0161743
170,2,-0.0424194,0.0186157,0.0256348,-0.0201416,0.0137329,0.0393677,0.00213623,0.0256348,0.022583,-0.0219727,-0.0375366,0.0189209,-0.0161743
170,3,0.00976562,0.0177002,0.0604248,0.0158691,0.0445557,0.0317383,0.038147,0.0195312,0.0231934,0.0164795,-0.0189209,0.0177002,0.020752
170,4,0.0292969,0.0546265,0.0204468,0.0311279,0.0891113,0.022583,0.0341797,0.0289917,0.0375366,0.0137329,-0.00762939,0.0341797,0.0280762
171,0,0.0378418,0.0164795,0.0152588,0.00518799,0.0448608,0.0198364,0.0463867,0.0280762,0.0201416,-0.0012207,-0.0332642,0.0302124,0.0274658
171,1,0.00518799,0.0183105,0.0158691,0.0234985,0.0268555,0.0631714,0.0268555,0.020752,0.0256348,0.010376,-0.0253296,0.0366211,0.0253296
171,2,0.0112915,0.0326538,0.0332642,0.0256348,0.0390625,0.0198364,0.0292969,0.00549316,0.0180054,0.00671387,-0.0286865,0.0152588,0.0143433
171,3,0.0234985,0.0158691,0.0161743,0.0100708,0.0360107,0.0396729,0.0201416,0.0262451,0.0631714,-0.000610352,-0.0250244,0.020752,0.0289917
171,4,0.0140381,0.00976562,0.0213623,0.0247192,0.0372314,0.0402832,0.0341797,0.0274658,0.0588989,0.0149536,-0.0265503,0.0393677,0.00549316
172,0,0.0177002,0.010376,0.0216675,0.038147,-0.010376,0.0579834,0.0436401,0.00579834,0.0460815,0.0323486,-0.0189209,0.0283813,0.0161743
172,1,0.0183105,-0.0210571,0.0204468,0.0408936,-0.0338745,0.0244141,0.0317383,0.0262451,0.0286865,-0.00518799,-0.0296021,0.0280762,0.010376
172,2,0.00457764,0.0125122,0.00762939,0.0271606,0.0372314,0.0558472,0.0305176,0.0228882,0.0192261,0.0546265,-0.0213623,0.010376,0.0268555
172,3,-0.00762939,0.00640869,0.0244141,0.0326538,0.0628662,0.0238037,0.0292969,0.0369263,0.0283813,0.0088501,-0.0268555,0.0198364,0.0247192
172,4,0.0189209,0.0271606,0.0198364,0.0299072,0.0482178,0.0360107,0.0332642,0.0283813,0.0213623,0.0167847,-0.0210571,0.00915527,0.00152588
173,0,0.0158691,0.0512695,-0.00183105,0.0192261,-0.0244141,0.0540161,0.0305176,0.0762939,0.0311279,0.0350952,-0.0247192,0.00976562,0.0195312
173,1,0.0143433,0.0244141,0.0100708,0.0213623,0.0585938,0.0161743,0.0280762,0.017395,0.0259399,0.0247192,-0.0265503,0.0131226,0.0213623
173,2,0.012207,0.0219727,0.0250244,0.00488281,0.0314331,0.0265503,0.0164795,0.0170898,0.0616455,0.0247192,-0.0244141,0.0158691,0.0305176
173,3,0.0289917,0.00946045,0.0210571,0.0369263,0.0390625,0.0482178,0.0274658,0.0390625,0.0134277,0.0274658,-0.0302124,0.0244141,0.0708008
173,4,0.0250244,0.0268555,0.0167847,0.0186157,0.0448608,0.0320435,0.0378418,0.0177002,0.0119019,0.0186157,-0.0216675,0.043335,0.0308228
174,0,0.0314331,0.0274658,0.0332642,0.015564,0.0411987,0.0393677,0.0411987,0.0311279,0.0250244,0.0686646,-0.0302124,0.0195312,-0.0350952
174,1,0.00854492,0.0256348,0.0100708,0.0485229,0.0408936,0.0518799,-0.010376,0.0335693,0.0375366,0.0418091,-0.0280762,0.0265503,0.0311279
174,2,-0.000610352,0.0204468,0.0164795,-0.00427246,0.03479,0.0302124,0.0344849,0.0268555,0.0283813,0.00396729,-0.000305176,0.00396729,0.00671387
