Devices
1000
,,Myon - Voltage,,,,,,,,,,,,,
Frame,Sub Frame,GC-M,TA,SOL,VM,VL,RF,BF,ST,GLUT-M,EO,Gracilis,GC-L,Semimembranosus
,,V,V,V,V,V,V,V,V,V,V,V,V,V
1,0,0.0170898,0.0308228,-0.0317383,-0.00976562,0.032959,0.0180054,0.0222778,0.0167847,0.0335693,0.0317383,-0.0210571,-0.0354004,0.0338745
1,1,0.0354004,0.0299072,-0.00244141,0.012207,0.0326538,0.0341797,0.00457764,0.022583,0.00152588,0.0289917,-0.0228882,0.0183105,0.0640869
1,2,0.0259399,0.0326538,0.0656128,0.0167847,0.015564,0.03479,0.0326538,0.000305176,0.0195312,-0.0320435,-0.017395,0.0177002,0.0543213
1,3,0.015564,0.0488281,0.0445557,0.0262451,0.0320435,0.0289917,0.0213623,0.0262451,0.00305176,0.00518799,-0.0222778,0.0390625,0.0637817
1,4,0.0366211,0.0424194,0.0628662,0.0640869,0.0256348,0.022583,0.00213623,0.0265503,0.0183105,0.0146484,-0.0238037,0.0204468,0.0378418
2,0,0.0012207,0.0299072,0.0650024,0.0204468,0.0369263,0.0314331,0.0274658,0.0088501,0.0177002,0.0131226,-0.010376,0.0180054,0.0350952
2,1,0.0427246,0.0350952,0.11322,0.0106812,0.0469971,0.0543213,0.0192261,0.0167847,0.0088501,0.0262451,-0.0186157,0.0366211,0.00793457
2,2,0.0387573,0.0177002,0.127563,0.0106812,0.0259399,0.0149536,0.0274658,0.0231934,-0.0299072,0.0128174,-0.0393677,0.0918579,0.0238037
2,3,0.0186157,0.0244141,0.0921631,0.0100708,0.0231934,-0.0247192,0.0299072,0.0183105,0.0222778,0.0164795,-0.0189209,0.0405884,0.03479
2,4,0.0268555,0.06073,0.116272,0.0250244,0.0231934,0.0167847,0.0219727,0.0219727,0.0311279,0.0204468,-0.0161743,0.0558472,0.0152588
3,0,0.0271606,0.0250244,0.0646973,0.0292969,0.0369263,0.0128174,0.0305176,0.0170898,0.020752,0.00823975,-0.0161743,0.0210571,0.0280762
3,1,0.0231934,0.0271606,0.0613403,0.0524902,0.0253296,0.0402832,-0.000915527,0.0134277,0.012207,0.00305176,-0.012207,0.0201416,0.0146484
3,2,0.0189209,0.0241089,0.00305176,0.0311279,-0.0396729,0.0186157,0.0228882,-0.0012207,-0.00701904,0.0195312,-0.0137329,0.0170898,0.0253296
3,3,0.0125122,0.0305176,0.032959,0.0250244,0.0616455,0.0610352,0.0234985,0.00579834,0.0137329,0.0393677,-0.0183105,0.0222778,0.0204468
3,4,0.0146484,-0.0170898,0.0106812,0.0302124,0.0265503,0.0332642,0.0183105,0.015564,0.0192261,0.0167847,-0.0253296,0.0140381,0.0250244
4,0,0.0170898,0.00549316,-0.0143433,0.0341797,-0.0253296,0.0308228,0.0305176,-0.0210571,0.0164795,0.0198364,-0.0164795,0.0119019,0.0308228
4,1,0.0375366,0.0201416,-0.0378418,0.0262451,0.0189209,0.0125122,0.0250244,0.020752,-0.00396729,0.0253296,-0.0534058,0.0305176,0.038147
4,2,0.0152588,0.0158691,-0.0634766,0.0332642,0.032959,0.0396729,0.0302124,0.0125122,-0.00305176,0.0344849,-0.0219727,0.0323486,0.0378418
4,3,0.050354,0.0271606,-0.0439453,-0.0210571,0.0100708,0.0360107,0.0238037,0.0180054,0.00610352,0.0213623,-0.0289917,0.0128174,0.0265503
4,4,0.0332642,0.0238037,-0.0274658,0.0335693,0.0256348,0.0100708,0.0158691,0.0280762,0.0253296,0.0213623,-0.017395,0.0146484,0.0241089
5,0,0.038147,0.0265503,-0.0177002,-0.0354004,0.0332642,0.0167847,0.0595093,0.03479,0.0137329,0.0253296,-0.0546265,0.0152588,0.0241089
5,1,0.015564,0.00854492,-0.000305176,0.0195312,0.062561,0.0323486,0.0271606,-0.0314331,0.0198364,0.00823975,0.0109863,0.0332642,0.0296021
5,2,0.00305176,0.0332642,0.0564575,0.039978,0.0292969,0.032959,0.038147,0.0292969,0.0436401,0.0128174,-0.0161743,0.0253296,0.0216675
5,3,0.00335693,0.0265503,0.00518799,0.0302124,0.0384521,-0.0476074,0.0302124,0.0286865,0.0891113,0.0143433,-0.0134277,0.0137329,0.0262451
5,4,0.0610352,0.0299072,0.0469971,0.0335693,0.0430298,0.0262451,0.0201416,0.0335693,0.0186157,-0.000305176,-0.0466919,0.015564,0.0216675
6,0,0.00915527,0.0311279,0.0701904,0.0250244,0.039978,0.0350952,0.0234985,0.0125122,0.00854492,0.0259399,-0.015564,0.00976562,-0.0314331
6,1,0.00457764,0.0241089,0.103149,0.122375,0.0482178,0.0268555,0.0357056,0.0271606,0.0189209,0.00732422,-0.0131226,0.0274658,0.0332642
6,2,0.0372314,0.0253296,0.123291,0.0299072,0.0344849,0.0405884,0.0164795,0.020752,-0.0238037,0.000915527,-0.0262451,0.0543213,0.020752
6,3,0.0109863,0.0112915,0.0772095,0.0369263,0.0430298,0.0231934,0.0204468,0.0262451,0.0012207,0.0140381,-0.0238037,0.0210571,0.0442505
6,4,0.0128174,0.0650024,0.083313,0.0469971,0.0448608,0.0201416,0.0250244,0.0259399,-0.00274658,0.00701904,-0.0213623,0.0219727,0.0241089
7,0,0.0299072,0.0189209,0.0448608,0.0244141,0.0595093,0.0314331,0.0210571,0.0198364,0.0213623,0.0161743,-0.0238037,0.0125122,0.0320435
7,1,0.0177002,0.0445557,0.0784302,0.0369263,0.0222778,0.0088501,0.0283813,0.0259399,0.0146484,0.0170898,-0.0115967,0.0338745,0.0256348
7,2,0.0198364,0.0317383,0.0305176,0.0512695,0.0186157,0.0326538,0.0299072,0.0308228,0.0302124,0.0146484,-0.0189209,0.0268555,0.0311279
7,3,0.03479,0.0201416,0.0247192,0.0268555,0.0167847,0.0305176,0.039978,0.0198364,0.0128174,0.0137329,-0.00610352,0.0186157,0.0250244
7,4,0.0088501,0.0421143,0.00518799,0.0430298,0.0378418,0.0256348,0.0360107,0.0338745,0.0012207,0.0311279,-0.017395,0.015564,0.038147
8,0,0.0241089,0.0128174,-0.020752,0.0390625,0.0357056,0.0234985,0.0344849,0.022583,0.0152588,0.0216675,-0.0125122,0.0112915,0.0308228
8,1,0.0131226,0.0204468,-0.0579834,0.0341797,0.0234985,0.0302124,0.0183105,0.017395,0.0189209,0.045166,-0.0247192,0.0326538,0.0531006
8,2,0.000915527,0.00976562,-0.0784302,0.0256348,0.0201416,0.0289917,0.0326538,0.0317383,0.0149536,0.0482178,-0.0210571,0.0238037,0.0256348
8,3,0.010376,0.0271606,-0.0842285,0.0289917,0.0369263,0.0234985,0.0305176,0.0186157,0.0119019,0.0152588,-0.0378418,0.0164795,0.0909424
8,4,0.020752,0.0289917,-0.0106812,0.0390625,0.0366211,0.0177002,0.0228882,0.0247192,0.0219727,0.0274658,-0.0195312,0.017395,0.114441
9,0,0.0189209,0.0311279,-0.0167847,0.0357056,-0.00488281,0.0344849,0.0375366,0.0271606,0.0204468,0.0253296,-0.0192261,0.0112915,0.0280762
9,1,0.0350952,0.0314331,0.0177002,0.0299072,0.0350952,0.0274658,0.00274658,0.0311279,0.0140381,0.0454712,-0.0128174,0.0189209,0.0262451
9,2,-0.0012207,0.0332642,0.010376,0.0357056,0.0268555,0.0570679,0.0271606,0.0106812,0.0408936,0.0411987,-0.0198364,0.0170898,0.0265503
9,3,0.0183105,0.0775146,0.0274658,0.0244141,0.0271606,0.0314331,0.0250244,0.0146484,0.0302124,0.043335,-0.0192261,0.0161743,0.0231934
9,4,-0.00183105,0.0268555,0.0323486,0.0183105,-0.00549316,0.0354004,0.0512695,0.0881958,0.0167847,0.0341797,-0.0210571,0.0201416,0.0289917
10,0,0.0177002,0.015564,0.062561,0.0131226,0.0326538,0.0387573,0.039978,0.0143433,0.015564,0.0262451,-0.0308228,0.0216675,0.0204468
10,1,0.0445557,0.0238037,0.085144,0.0314331,0.0180054,0.0259399,0.0299072,0.0198364,0.0115967,0.039978,-0.0292969,0.0286865,0.0268555
10,2,0.00274658,0.0186157,0.126038,0.0570679,0.0378418,0.0338745,0.0219727,0.0286865,0.00610352,0.0119019,-0.0134277,0.0180054,0.045166
10,3,0.0231934,0.0231934,0.0854492,0.0390625,0.0012207,0.0259399,0.0253296,0.0350952,0.0283813,0.0372314,-0.0183105,0.0164795,0.0241089
10,4,0.0280762,0.020752,0.0680542,0.0454712,0.0366211,0.03479,0.0253296,-0.00762939,0.0253296,0.0335693,-0.0238037,0.00976562,0.0320435
11,0,0.0320435,0.0262451,0.0878906,0.0405884,0.0228882,0.0314331,0.0177002,0.0323486,0.0195312,0.038147,-0.0482178,0.010376,0.0192261
11,1,-0.000610352,0.0164795,0.0415039,0.0448608,0.0262451,0.0253296,0.027771,0.0210571,0.0177002,0.0228882,-0.022583,0.00610352,0.00610352
11,2,0.0210571,0.0344849,0.0088501,0.0311279,0.0149536,0.0259399,0.0314331,0.0289917,0.0262451,0.0228882,-0.0238037,0.00732422,0.0149536
11,3,0.027771,0.0244141,0.0177002,0.0283813,0.0320435,0.0314331,0.0286865,0.020752,0.0253296,0.0344849,-0.0238037,0.0128174,0.0180054
11,4,0.0271606,0.015564,-0.03479,0.0283813,0.0326538,0.0308228,0.0384521,0.0265503,0.0244141,0.032959,-0.0161743,0.0134277,0.0238037
12,0,0.0109863,0.0311279,-0.0204468,0.022583,0.0527954,0.0271606,0.0283813,0.0311279,0.0366211,0.0292969,-0.0445557,0.0259399,0.0201416
12,1,0.0234985,0.0265503,-0.062561,0.00793457,0.0280762,0.0341797,0.0848389,0.0311279,0.0143433,0.0662231,-0.0152588,0.0180054,0.0570679
12,2,0.0201416,0.0204468,-0.0250244,0.0167847,0.0320435,0.022583,0.0311279,0.0268555,0.0363159,0.0231934,-0.0384521,0.027771,0.00518799
12,3,0.0198364,0.0393677,-0.0747681,0.0152588,0.00488281,0.032959,0.0247192,0.0271606,0.0369263,0.0308228,-0.0137329,0.0357056,0.0198364
12,4,0.012207,0.0259399,-0.0378418,0.0195312,0.0308228,0.0164795,0.032959,0.0372314,-0.0134277,0.0231934,-0.0213623,0.0219727,0.0164795
13,0,0.0241089,0.00854492,-0.0262451,0.0170898,0.0256348,0.057373,0.0302124,0.0189209,0.0143433,0.000915527,-0.0195312,0.0192261,0.0131226
13,1,0.010376,0.0250244,-0.0253296,-0.00152588,0.0350952,0.043335,0.0305176,0.0320435,0.0149536,0.0332642,-0.0198364,-0.0088501,0.0427246
13,2,0.0262451,0.0216675,0.0357056,0.00579834,0.0314331,0.0308228,0.0372314,0.0323486,0.000915527,0.0262451,-0.012207,0.00640869,0.0183105
13,3,0.0158691,0.0201416,0.00457764,0.0238037,0.0216675,0.0341797,0.0109863,0.0259399,0.0131226,0.00457764,-0.0164795,0.0323486,0.00427246
13,4,0.0112915,0.0393677,0.0378418,0.0186157,0.0430298,0.0469971,0.0244141,0.0222778,0.0265503,0.00854492,0.022583,0.0234985,0.0198364
14,0,-0.00274658,0.0244141,0.0692749,-0.0177002,0.0280762,0.0387573,0.0811768,0.00305176,0.020752,-0.0552368,-0.0161743,0.0131226,0.0509644
14,1,0.0149536,0.0115967,0.126648,0.0192261,0.0280762,0.0274658,0.0427246,0.0195312,0.0241089,0.0158691,-0.0131226,0.0289917,0.0299072
14,2,0.00854492,0.0576782,0.108948,0.0286865,0.0134277,0.0387573,0.0360107,0.0244141,0.0177002,0.00793457,-0.00427246,0.00274658,0.00640869
14,3,0.010376,0.0100708,0.103455,0.0335693,0.0360107,0.0888062,0.0262451,0.0292969,0.0238037,0.0088501,-0.027771,0.0106812,0.0106812
14,4,0.0967407,0.027771,0.085144,0.0823975,0.0271606,0.0378418,-0.0247192,0.0323486,0.0244141,0.0192261,-0.0222778,0.0158691,0.0341797
15,0,0.00762939,0.00671387,0.0494385,0.0283813,0.0384521,0.0448608,0.0335693,0.0292969,0.0244141,0.0183105,-0.0216675,-0.0317383,0.015564
15,1,-0.0115967,0.0125122,0.0567627,0.0317383,0.0134277,0.0350952,0.0872803,0.0332642,0.0308228,-0.0146484,-0.0137329,0.0177002,0.0134277
15,2,0.0143433,0.0112915,0.012207,0.0869751,0.0283813,0.0250244,0.0500488,0.0292969,0.0338745,0.0161743,-0.0161743,0.0125122,0.0231934
15,3,0.00701904,0.0427246,0.0201416,0.0363159,0.0280762,0.039978,0.022583,0.0262451,0.0320435,0.0723267,-0.0216675,0.0234985,0.0747681
15,4,0.0262451,-0.00213623,0.0088501,0.0405884,0.0311279,0.0442505,0.0213623,0.0286865,0.0335693,0.0158691,-0.0170898,0.0106812,0.0143433
16,0,0.0198364,0.00610352,-0.0311279,0.0308228,0.0234985,0.0717163,0.0274658,0.0265503,0.0323486,0.0189209,-0.0363159,0.0442505,0.0149536
16,1,0.022583,0.0289917,-0.0506592,0.0296021,0.0360107,0.0268555,0.03479,0.00976562,0.0146484,0.0119019,-0.020752,0.0238037,0.0128174
16,2,0.0189209,0.0170898,-0.0924683,0.0497437,0.0213623,0.0216675,0.0265503,0.0283813,0.0259399,-0.00183105,-0.0137329,0.00793457,0.0100708
16,3,0.0286865,0.0210571,-0.0634766,0.0210571,0.0390625,0.0418091,0.0292969,0.020752,0.0280762,-0.00244141,-0.0244141,0.0134277,0.00274658
16,4,0.017395,-0.0170898,-0.0558472,0.0280762,-0.0531006,0.0244141,0.0308228,-0.0180054,0.0320435,0.0213623,-0.0180054,0.00152588,0.00854492
17,0,0.0161743,-0.0100708,-0.0213623,0.020752,0.0289917,0.0323486,0.0482178,0.03479,0.0320435,0.00793457,-0.0286865,-0.0393677,0.00579834
17,1,0.0189209,0.06073,-0.0271606,0.0244141,0.0283813,0.0219727,0.0180054,0.0341797,0.0238037,0.022583,-0.0292969,0.0149536,0.0338745
17,2,0.0234985,0.0402832,-0.00610352,0.0357056,0.0198364,0.00732422,0.0311279,0.0314331,0.0424194,0.015564,-0.0167847,0.00213623,0.0137329
17,3,0.00579834,0.00396729,0.039978,0.0177002,0.0231934,0.0442505,0.0360107,0.022583,0.0247192,0.00610352,-0.0268555,0.0234985,0.0256348
17,4,0.0241089,0.0180054,0.062561,0.0201416,0.0411987,0.0180054,0.0292969,0.0137329,0.0350952,0.00732422,-0.0341797,0.0140381,-0.0335693
18,0,0.0192261,0.0250244,0.0439453,-0.0518799,0.0509644,0.0265503,0.0759888,0.0323486,0.0436401,0.0115967,-0.020752,0.0100708,0.0222778
18,1,0.0167847,0.00946045,0.106812,0.0213623,0.0180054,-0.0180054,0.0183105,0.0344849,0.0479126,0.00671387,-0.0222778,0.0186157,0.0271606
18,2,0.015564,0.00915527,0.0802612,0.0106812,0.00854492,0.0512695,0.0369263,0.0341797,0.0262451,0.0149536,-0.0210571,0.00457764,0.0210571
18,3,0.0268555,0.0152588,0.0848389,0.0192261,0.0299072,0.0402832,0.0344849,0.0195312,0.0192261,0.0195312,0.0262451,0.0164795,0.0192261
18,4,0.00427246,0.0189209,0.0891113,0.0408936,0.0222778,0.0201416,0.038147,0.0323486,0.0469971,0.000610352,-0.0250244,-0.0473022,0.0161743
19,0,0.0308228,0.0146484,0.0778198,0.0289917,0.0350952,0.0375366,0.0323486,0.0299072,0.0198364,0.0143433,-0.00976562,0.0125122,0.0311279
19,1,0.0183105,0.0305176,0.0476074,0.0280762,-0.00762939,0.0234985,0.0320435,0.0811768,0.0308228,0.012207,-0.00427246,0.0222778,0.0100708
19,2,0.0201416,0.0088501,0.0350952,0.00457764,0.0286865,0.0375366,0.0231934,0.0308228,0.0250244,0.0170898,-0.0231934,0.0137329,0.0283813
19,3,0.0244141,0.00793457,-0.00640869,0.0161743,0.0131226,0.0421143,0.0341797,0.0311279,0.0125122,-0.00274658,-0.0234985,0.0131226,0.0195312
19,4,0.0234985,0.0320435,0.0646973,0.0357056,0.0134277,0.0643921,0.0283813,0.0262451,0.00915527,0.027771,-0.0152588,0.0192261,0.022583
20,0,0.0134277,0.0012207,-0.015564,0.0457764,0.0164795,0.0302124,0.0302124,0.0299072,0.0415039,0.0231934,-0.0314331,0.0109863,0.0234985
20,1,0.0238037,0.0518799,-0.0750732,0.0216675,0.0723267,0.0183105,0.0378418,0.0588989,0.0360107,0.0308228,-0.0326538,0.0192261,0.0268555
20,2,0.0259399,0.0241089,-0.0598145,0.0115967,-0.0106812,0.0262451,0.0326538,0.0421143,0.0332642,0.0204468,-0.0222778,0.00793457,0.00427246
20,3,0.022583,0.00854492,-0.0674438,0.0250244,0.0198364,0.0213623,0.0180054,0.0299072,0.0311279,0.0274658,-0.0201416,0.0201416,0.0088501
20,4,0.00366211,0.0125122,-0.0421143,0.00335693,0.020752,0.0125122,0.0341797,0.0418091,0.032959,0.0457764,-0.0234985,0.0292969,-0.0119019
21,0,-0.0369263,0.0332642,-0.0265503,0.0137329,0.0186157,0.0280762,0.0332642,0.0344849,0.0311279,0.0509644,-0.0576782,0.0241089,0.0189209
21,1,0.0125122,0.0177002,-0.0338745,0.00427246,-0.0418091,0.0268555,0.0213623,0.0344849,0.038147,0.0488281,-0.0531006,0.0161743,0.0210571
21,2,0.0158691,0.0186157,-0.0280762,0.00915527,0.0177002,0.0198364,0.0183105,0.0418091,0.0302124,0.0454712,-0.00366211,0.00427246,0.0231934
21,3,0.0238037,0.00183105,0.0302124,0.0125122,0.0183105,0.022583,0.0244141,0.0241089,0.0369263,0.0350952,-0.0296021,0.0421143,0.0274658
21,4,0.020752,0.0262451,0.0350952,0.00640869,0.012207,0.0421143,0.108948,0.0372314,0.0344849,0.0714111,-0.0323486,0.00854492,0.00274658
22,0,0.00701904,0.0210571,0.0335693,0.00579834,0.00946045,-0.0415039,0.0317383,0.0354004,0.0320435,0.0469971,-0.0366211,0.00976562,0.0201416
22,1,0.0296021,0.00244141,0.100708,0.0213623,0.0134277,0.020752,0.0314331,0.0527954,0.0335693,0.0515747,-0.0457764,0.0250244,-0.0128174
22,2,0.0283813,0.0543213,0.111084,0.0283813,0.0192261,0.0296021,0.0396729,0.0344849,0.022583,0.0411987,-0.0253296,0.00488281,0.020752
22,3,0.0396729,0.0262451,0.0686646,0.00549316,0.0177002,0.0247192,0.0271606,0.020752,0.0570679,0.0302124,-0.0213623,0.0134277,0.0750732
22,4,0.0302124,0.0198364,0.0708008,-0.027771,0.0161743,0.0143433,0.0216675,0.0314331,0.0308228,0.0253296,-0.027771,0.0146484,0.0244141
23,0,0.0177002,0.0234985,0.0686646,0.0201416,-0.00457764,0.0292969,0.0146484,0.0665283,0.032959,0.039978,-0.0344849,0.027771,0.0234985
23,1,0.0320435,0.0198364,0.0485229,0.0177002,0.0106812,0.0183105,0.0112915,0.0314331,0.032959,0.0411987,-0.0271606,0.0442505,0.0271606
23,2,-0.0256348,0.0186157,0.0247192,0.0109863,0.0299072,0.0234985,0.0964355,0.0308228,0.0323486,-0.0500488,-0.0305176,0.0195312,0.0808716
23,3,0.0265503,0.0088501,0.00274658,0.0158691,0.0106812,0.0292969,0.0442505,0.0238037,0.0311279,0.00701904,-0.0305176,-0.0180054,0.03479
23,4,0.0271606,0.010376,0.0564575,0.0234985,0.015564,0.0384521,0.038147,0.0378418,0.00579834,0.00762939,-0.0274658,0.0134277,0.0289917
24,0,0.0167847,0.0219727,-0.0439453,0.0158691,0.0497437,0.0228882,0.0323486,0.0238037,0.0292969,0.00549316,-0.0186157,0.0195312,0.0149536
24,1,0.0170898,0.017395,-0.105591,0.0161743,0.0088501,0.0314331,0.0234985,0.0338745,0.0302124,0.0152588,-0.0421143,0.0216675,0.0195312
24,2,0.0430298,0.038147,-0.0912476,0.00610352,0.0265503,0.00793457,0.0210571,0.0247192,0.0476074,0.0088501,-0.03479,0.0292969,0.0244141
24,3,0.0317383,0.0286865,-0.0549316,0.0683594,0.0238037,0.0167847,0.0646973,0.0286865,0.0369263,-0.00213623,-0.0418091,0.0222778,0.0317383
24,4,0.0244141,0.0323486,-0.0610352,0.00793457,0.012207,0.00213623,0.0204468,0.00305176,0.0408936,0.00762939,-0.0314331,0.0222778,0.0137329
25,0,0.0228882,0.0231934,-0.0469971,0.012207,0.0228882,0.0088501,0.0241089,0.0289917,0.0460815,0.00152588,-0.03479,0.0222778,0.0247192
25,1,0.0250244,0.0137329,-0.00427246,0.0106812,0.0125122,0.0195312,0.0228882,0.0350952,0.043335,-0.0488281,-0.0180054,0.0244141,-0.0473022
25,2,0.0280762,0.0271606,0.00610352,0.0119019,0.00213623,0.0152588,0.0424194,-0.010376,0.0369263,-0.0161743,-0.0311279,0.0378418,0.0167847
25,3,0.0332642,0.0201416,0.0546265,0.0598145,0.0131226,0.00640869,-0.00671387,0.0323486,0.0415039,0.00366211,-0.0262451,0.0143433,0.022583
25,4,0.0231934,0.0222778,0.0393677,0.00976562,0.00946045,0.015564,0.027771,0.0369263,0.0360107,0.0234985,-0.0241089,0.010376,0.0375366
26,0,0.0396729,0.0186157,0.102234,0.0143433,0.0167847,-0.0326538,0.0344849,0.0234985,0.0302124,0.00701904,-0.0350952,0.0299072,0.0405884
26,1,0.0167847,0.0170898,0.0964355,-0.00671387,0.0134277,0.0180054,0.0302124,0.0241089,0.0527954,0.00427246,-0.0216675,0.0387573,0.0177002
26,2,0.0219727,0.0280762,0.115356,-0.00549316,0.0201416,0.0421143,0.012207,0.0152588,-0.0302124,0.00946045,-0.0402832,0.0305176,0.0231934
26,3,0.0305176,0.0183105,0.0881958,0.0152588,0.0164795,0.0143433,0.0262451,0.020752,0.0213623,0.0088501,-0.0424194,0.015564,0.0350952
26,4,0.0247192,0.0344849,0.111389,0.0231934,-0.00396729,0.0738525,0.0253296,0.0219727,-0.0360107,0.00549316,-0.015564,0.050354,0.0183105
27,0,0.0228882,0.0292969,0.0912476,0.010376,0.00762939,0.0259399,0.0405884,0.0238037,0.027771,0.0640869,-0.0338745,0.0149536,0.00701904
27,1,0.0628662,0.0149536,0.0869751,0.00274658,0.0115967,0.0244141,0.0268555,0.038147,0.0280762,0.022583,-0.0326538,0.0265503,0.0280762
27,2,0.050354,0.00366211,0.0772095,0.0280762,0.0469971,0.0210571,0.0219727,0.0335693,0.0234985,0.0289917,-0.0164795,0.0338745,0.0241089
27,3,0.0411987,0.0146484,0.0396729,0.0344849,-0.0012207,0.0717163,0.0231934,0.0189209,-0.00213623,0.0280762,-0.0253296,0.0262451,0.0332642
27,4,0.0311279,0.0210571,0.0546265,0.027771,-0.0454712,0.00701904,0.0210571,0.0665283,0.0454712,0.0518799,-0.0344849,0.0222778,0.0183105
28,0,0.032959,0.0134277,0.0686646,0.00366211,0.015564,0.0219727,0.0183105,0.0183105,0.00457764,0.0469971,-0.0372314,0.0335693,0.0253296
28,1,0.0296021,0.0177002,0.0482178,-0.00732422,0.0192261,0.0302124,0.00488281,0.00213623,0.0247192,0.0579834,-0.0701904,0.0253296,0.022583
28,2,0.0106812,0.020752,0.0643921,-0.00518799,0.00762939,-0.00152588,0.0280762,0.0338745,0.0299072,0.0692749,-0.0335693,0.0491333,0.0393677
28,3,0.0332642,0.0183105,0.0686646,0.0305176,0.00793457,0.0088501,0.0610352,0.0106812,0.0317383,0.0439453,-0.0186157,0.0265503,0.0305176
28,4,0.03479,0.0332642,0.0582886,0.0134277,0.0131226,0.0213623,0.03479,0.0244141,0.0415039,0.102844,-0.0317383,0.0311279,0.055542
29,0,0.0167847,0.032959,-0.0421143,0.0088501,0.00671387,0.010376,-0.000305176,0.0296021,0.0344849,0.0552368,-0.0323486,0.0564575,0.0210571
29,1,0.0430298,0.0115967,-0.0378418,0.0137329,0.00762939,0.0244141,0.0268555,0.0366211,0.0231934,0.065918,-0.0189209,0.0360107,0.0219727
29,2,0.0231934,0.017395,0,0.0250244,0.0161743,-0.0192261,0.0158691,0.0158691,-0.0250244,0.0790405,-0.0274658,0.0280762,0.0109863
29,3,0.0259399,0.0280762,0.0576782,-0.00305176,-0.0131226,0.0115967,0.010376,0.0213623,0.0238037,0.065918,-0.0286865,0.00366211,0.0314331
29,4,0.0296021,0.0241089,0.0219727,0.0143433,0.0170898,0.020752,0.0186157,0.0286865,0.0241089,0.0604248,-0.020752,0.0323486,0.0369263
30,0,0.0430298,0.0177002,0.00610352,0.0192261,0.017395,0.0241089,0.0280762,0.0222778,0.0256348,0.0567627,-0.03479,0.0344849,0.0360107
30,1,0.0366211,0.00946045,0.0741577,0.0320435,0.022583,0.0201416,0.0201416,0.0357056,0.0271606,0.062561,-0.0418091,0.0375366,0.0421143
30,2,0.0262451,0.0286865,0.0909424,0.0283813,-0.043335,0.0125122,0.0305176,0.0265503,0.0335693,0.0396729,-0.0088501,0.015564,0.0302124
30,3,0.0350952,0.0271606,0.0845337,0.0146484,0.0180054,0.0088501,0.0268555,0.0228882,0.0134277,0.0616455,-0.043335,0.0250244,0.0241089
30,4,0.0305176,0.0387573,0.0701904,0.0469971,0.0253296,0.0186157,0.0271606,0.0180054,0.0256348,0.0476074,-0.0296021,0.0219727,-0.00274658
31,0,0.0405884,0.0704956,0.0927734,0.00976562,0.0570679,0.0219727,-0.0109863,-0.0280762,0.0241089,0.0488281,-0.0323486,0.0326538,0.0463867
31,1,0.0390625,0.0158691,0.0717163,0.0335693,0.0106812,-0.0216675,0.022583,0.0216675,0.0128174,0.0662231,-0.0363159,0.0238037,0.0204468
31,2,0.039978,0.0253296,0.0231934,0.0335693,0.0149536,0.0192261,0.0567627,0.0134277,0.0238037,0.0531006,-0.0479126,0.0228882,0.0259399
31,3,0.0506592,0.0292969,-0.0289917,0.0289917,0.0161743,0.0164795,0.0396729,0.0161743,0.0253296,0.0234985,-0.0228882,0.0250244,-0.0161743
31,4,0.0286865,0.0579834,-0.0244141,0.0143433,-0.020752,0.00640869,0.0201416,0.0531006,0.0631714,0.0512695,-0.0253296,0.0158691,0.0228882
32,0,0.00305176,0.0247192,-0.0149536,0.0265503,0.0253296,0.010376,0.0195312,0.0460815,0.0259399,0.0436401,-0.0360107,0.0350952,0.0308228
32,1,0.0262451,0.0820923,-0.0360107,0.0183105,0.043335,0.00946045,0.0177002,0.0186157,0.0213623,0.0598145,-0.0378418,0.0289917,0.0415039
32,2,0.0402832,0.0158691,-0.100098,0.0256348,0.0216675,0.00915527,0.0314331,-0.000610352,0.0210571,0.0598145,-0.0460815,0.0387573,0.10376
32,3,0.0241089,0.027771,-0.083313,0.0299072,0.0183105,0.022583,0.0170898,0.0186157,0.0296021,0.0543213,-0.0326538,0.0299072,0.0366211
32,4,0.032959,0.032959,0.0128174,0.00335693,0.0131226,0.0088501,0.0238037,0.0265503,0.0161743,0.038147,-0.0375366,0.0296021,0.0161743
33,0,0.0372314,0.0372314,-0.0543213,0.00549316,0.00976562,0.00976562,0.0128174,0.0152588,0.0231934,0.0488281,-0.03479,0.0463867,-0.0195312
33,1,0.0311279,0.0335693,-0.0445557,-0.012207,0.0152588,0.00427246,0.0283813,0.0146484,0.0183105,0.0341797,-0.0311279,0.0283813,0.0265503
33,2,0.0250244,0.0234985,0.0100708,0.0112915,0.0195312,0.0238037,0.0219727,0.0219727,0.0222778,0.0256348,-0.0402832,0.0363159,0.0112915
33,3,0.0384521,-0.0198364,0.0326538,0.00793457,0.0140381,0.00762939,0.0262451,0.0238037,0.0390625,0.0396729,-0.0311279,0.0378418,0.0311279
33,4,0.00549316,0.0308228,0.0131226,0.0131226,0,0.017395,0.0564575,0.00549316,0.0262451,0.0320435,-0.0244141,0.0350952,0.0320435
34,0,0.0323486,0.0250244,0.0579834,0.0228882,0.0219727,0.0518799,0.00915527,0.0186157,-0.0131226,0.0292969,-0.0299072,0.0424194,0.0350952
34,1,0.0360107,0.038147,0.0567627,0.0128174,-0.000305176,0.020752,0.012207,-0.00976562,0.0241089,0.0302124,-0.0354004,0.017395,0.022583
34,2,0.043335,0.0363159,0.12146,0.0109863,0.00427246,0.0271606,0.0149536,0.0177002,0.022583,0.043335,0.00335693,0.0396729,0.0302124
34,3,0.050354,0.0247192,0.148315,0.0234985,0.00640869,0.0250244,0.0216675,0.0244141,0.0012207,0.0427246,-0.0296021,0.0259399,0.0152588
34,4,0.0289917,0.0195312,0.101318,0.0299072,0.0354004,0.0262451,0.00854492,0.0234985,0.0189209,0.0411987,-0.00579834,0.0274658,0.0253296
35,0,0.0323486,0.0292969,0.0994873,0.0350952,0.0244141,0.00762939,0.0198364,0.0213623,0.0265503,0.0372314,-0.0286865,0.0286865,0.022583
35,1,-0.0247192,0.00823975,0.0506592,0.0228882,0.0289917,0.00701904,0.0140381,0.015564,0.00976562,0.0164795,0.0149536,0.0552368,0.0256348
35,2,0.0326538,0.0292969,0.0558472,0.0363159,0.043335,0.0170898,0.0262451,0.03479,-0.0149536,0.0314331,-0.0363159,0.0354004,0.0112915
35,3,0.0320435,0.0210571,0.0180054,0.0332642,0.0320435,0.0228882,0.0320435,0.0241089,0.0280762,0.00244141,-0.0271606,0.0164795,-0.0106812
35,4,0.0393677,0.0274658,0.0210571,0.0158691,0.0256348,0.0430298,0.0109863,0.0198364,0.0183105,0.0268555,-0.0241089,0.0561523,0.0396729
36,0,-0.0152588,0.0317383,-0.00732422,0.0192261,0.0131226,0.0219727,0.0170898,-0.00915527,0.0265503,0.00854492,-0.0460815,0.0308228,0.0305176
36,1,0.0366211,0.0424194,-0.020752,0.0253296,0.00732422,-0.00335693,-0.0387573,0.0213623,0.0231934,0.0259399,-0.0283813,0.0262451,0.0253296
36,2,0.0418091,0.0299072,-0.0830078,0.038147,0.00701904,0.0106812,0.00915527,0.0646973,0.0592041,0.0283813,0.010376,0.0393677,0.0427246
36,3,0.0350952,0.0186157,-0.0524902,0.0192261,0.0149536,0.0622559,0.0161743,0.0244141,-0.00183105,0.0180054,-0.0463867,-0.00335693,0.0210571
36,4,0.0445557,0.0360107,-0.0350952,0.0164795,0.0222778,0.0204468,0.00366211,0.00854492,0.0189209,0.0372314,-0.0357056,0.0283813,0.0463867
37,0,0.0317383,0.00823975,-0.0695801,0.015564,0.0256348,0.0112915,0.0219727,0.0146484,0.0341797,0.0234985,-0.0384521,-0.0247192,0.0320435
37,1,0.03479,0.0344849,-0.0305176,0.0415039,0.0198364,-0.0247192,0.022583,0.0109863,-0.0158691,0.0411987,-0.0369263,0.0283813,0.0402832
37,2,0.0247192,0.0250244,0.0146484,0.0134277,0.0195312,0.00946045,0.0302124,0.0143433,0.0152588,0.0350952,-0.0305176,-0.00793457,0.0320435
37,3,0.0308228,0.0271606,0.0686646,0.0128174,0.00579834,0.0228882,0.0170898,0.0271606,0.0231934,0.0259399,-0.0271606,0.0238037,0.0283813
37,4,0.0305176,0.032959,0.0192261,0.022583,0.0140381,0.00762939,0.0167847,0.0314331,0.020752,0.0177002,-0.00183105,0.0253296,0.03479
38,0,0.0216675,0.0341797,0.0146484,0.0485229,0.0210571,-0.000305176,0.0201416,0.00732422,0.0238037,-0.0476074,-0.0335693,0.0357056,0.0308228
38,1,0.0323486,0.0296021,0.072937,0.0308228,-0.0662231,0.0088501,0.00427246,-0.0326538,0.0265503,0.0112915,-0.0415039,0.0372314,0.0390625
38,2,0.0354004,0.0354004,0.107422,0.0253296,0.0234985,0.000915527,0.0204468,0.0216675,0.022583,0.00823975,-0.0247192,0.0341797,0.0479126
38,3,0.0296021,0.0259399,0.102234,0.0393677,0.0299072,0.00213623,0.0793457,0.0274658,0.0360107,0.022583,-0.0204468,0.0262451,0.0430298
38,4,0.0421143,0.0372314,0.0875854,0.0460815,0.0256348,0.00701904,0.0216675,0.00152588,0.0152588,0.0109863,-0.0335693,0.0262451,0.0338745
39,0,0.0543213,0.0430298,0.0976562,-0.0262451,0.0106812,0.0088501,0.0527954,0.0360107,0.0177002,0.00396729,-0.0302124,0.0253296,0.0302124
39,1,0.0320435,0.0335693,0.0854492,0.0357056,0.03479,0.0192261,0.0219727,0.0292969,0.0411987,-0.00213623,-0.0204468,0.0210571,0.0424194
39,2,0.0259399,0.0241089,0.0494385,0.0366211,0.0247192,0.0112915,0.00274658,0.027771,0.0201416,-0.00183105,-0.0396729,0.0231934,0.0262451
39,3,0.0317383,-0.00488281,0.00823975,0.0463867,0.039978,0.00396729,0.0350952,0.0170898,0.0161743,-0.00427246,-0.0311279,0.0311279,0.0387573
39,4,0.0341797,0.0439453,0.00732422,0.0332642,0.017395,-0.0271606,0.0262451,0.0247192,0.0286865,-0.00335693,-0.0375366,0.0271606,0.0241089
40,0,0.0405884,-0.00854492,0.0012207,0.0286865,0.0683594,0.0250244,0.0198364,-0.0119019,0.0170898,0.00854492,-0.0262451,0.0289917,0.0222778
40,1,0.0357056,0.0308228,-0.0283813,0.0253296,0.0234985,-0.000610352,0.0396729,0.0146484,0.00915527,0.000610352,-0.0256348,0.0305176,0.0125122
40,2,0.0396729,0.0320435,-0.0701904,0.0213623,0.0201416,0.0137329,0.0161743,0.00793457,0.0143433,0.0131226,-0.0262451,0.0320435,0.0543213
40,3,0.078125,0.0350952,-0.0564575,0.00946045,0.020752,0.00366211,0.0183105,0.0152588,0.0134277,0.00946045,-0.017395,0.0280762,0.0280762
40,4,0.0299072,-0.0137329,-0.039978,0.0247192,0.00457764,0.00183105,0.020752,0.0146484,0.0256348,0.0283813,-0.0253296,0.0253296,0.0164795
41,0,0.0256348,0.00732422,-0.0375366,0.0442505,0.0201416,0.0149536,0.00366211,0.0204468,-0.00488281,0.0192261,-0.0234985,0.0231934,0.0579834
41,1,0.0219727,0.038147,-0.0149536,0.0259399,-0.043335,0.0106812,0.00976562,-0.00183105,0.022583,0.00701904,-0.0292969,0.0415039,0.0320435
41,2,0.0436401,0.0247192,-0.00244141,0.0271606,0.0341797,0.0216675,0.0228882,0.0167847,0.0216675,0.0253296,-0.0164795,0.0369263,0.0396729
41,3,0.0216675,0.0521851,0.0292969,0.0192261,-0.000610352,0.0204468,0.0265503,0.0134277,0.0234985,0.0128174,-0.0280762,0.0234985,0.0378418
41,4,0.0253296,0.0317383,0.0119019,0.0134277,0.032959,0.0170898,0.0134277,0.0161743,0.0164795,0.0140381,-0.0274658,0.0396729,0.0259399
42,0,0.0439453,0.038147,0.0561523,0.00823975,0.0259399,0.045166,-0.00793457,0.00640869,0.000610352,0.0195312,-0.0265503,0.0378418,0.0494385
42,1,0.0250244,0.0375366,0.0137329,0.0228882,0.0488281,0.00854492,0.00610352,0.012207,0.0109863,0.00457764,-0.0180054,0.027771,0.0585938
42,2,-0.0296021,0.0283813,0.107117,0.0418091,0.0244141,0.0283813,0.0012207,0.0167847,0.00457764,-0.00946045,-0.0378418,0.0256348,0.0250244
42,3,0.0228882,0.0308228,0.108643,0.0375366,0.0125122,0.0354004,0.0219727,0.0231934,0.0115967,0.0244141,-0.022583,0.00976562,0.0256348
42,4,0.0289917,0.0216675,0.151978,0.0448608,0.0378418,0.0531006,0.020752,0.0473022,0.0137329,0.0189209,-0.0344849,0.0363159,0.0274658
43,0,0.0283813,0.0213623,0.0933838,0.0219727,0.0332642,0.0177002,0.0268555,0.0189209,0.00274658,0.0253296,-0.022583,0.0305176,0.0280762
43,1,0.0338745,0.032959,0.0784302,0.0360107,0.0167847,0.0228882,0.00152588,0.0305176,0.00915527,0.0396729,-0.0262451,0.0518799,0.0418091
43,2,0.0250244,0.0158691,0.0616455,-0.00335693,0.022583,0.0372314,0.00213623,0.0421143,0.00854492,0.0326538,-0.017395,0.0292969,0.0360107
43,3,0.0305176,0.0314331,0.015564,0.0384521,0.0228882,0.0332642,0.0100708,0.0137329,-0.00244141,0.0195312,-0.0311279,0.0949097,0.032959
43,4,0.0323486,0.0140381,0.0341797,0.0192261,0.0460815,0.0479126,0.0140381,-0.0088501,0.00732422,0.0350952,-0.0201416,0.0317383,0.0302124
44,0,0.0405884,0.00549316,0.0140381,0.0198364,0.0610352,0.0253296,0.00335693,0.0170898,0.0088501,0.0137329,-0.0241089,0.0164795,0.0286865
44,1,0.0814819,0.0357056,-0.0241089,0.00152588,0.0283813,0.0119019,0.0524902,0.0100708,0.0241089,-0.0274658,-0.0476074,0.0265503,0.00457764
44,2,0.00946045,0.0344849,-0.0585938,0.0323486,0.0494385,0.0241089,0.0088501,0.0106812,0.0112915,0.0201416,-0.0161743,0.0244141,0.0378418
44,3,0.0201416,0.0396729,-0.0616455,0.0479126,0.0161743,-0.00946045,0.0170898,0.0161743,0.0158691,0.0411987,-0.0311279,0.0311279,0.0247192
44,4,0.0396729,0.0408936,-0.043335,0.032959,0.0244141,0.0131226,-0.0140381,0.0119019,-0.00244141,0.0845337,-0.015564,0.0253296,0.0146484
45,0,-0.0424194,0.0280762,-0.0256348,0.0241089,0.0292969,0.0430298,0.0134277,0.0109863,0.00427246,0.0192261,-0.0244141,0.0134277,0.0198364
45,1,0.0195312,0.0177002,-0.0305176,0.00610352,0.0320435,0.0354004,0.0457764,0.0259399,0.00854492,0.0576782,-0.0186157,0.0131226,0.0354004
45,2,-0.00640869,0.0213623,-0.0170898,0.0256348,0.0204468,0.0357056,0.0192261,0.0128174,0.0320435,0.0372314,-0.0134277,0.00946045,0.0283813
45,3,0.0341797,0.0372314,0.0344849,0.0183105,0.000305176,0.020752,0.0344849,-0.0106812,0.012207,0.0323486,0.00640869,0.0357056,0.0308228
45,4,0.0750732,0.0323486,0.0195312,0.0439453,0.0177002,0.0241089,-0.00854492,0.0271606,0.0164795,0.0479126,-0.0140381,0.0262451,0.0338745
46,0,0.0332642,0.0286865,0.0231934,0.0427246,0.0317383,-0.0112915,0.0332642,0.0210571,0.00366211,0.0314331,-0.0210571,0.0250244,0.039978
46,1,0.0253296,0.0250244,-0.0180054,0.0222778,0.00488281,0.0244141,0.0222778,0.0134277,0.000915527,0.0305176,-0.0152588,0.027771,0.0299072
46,2,0.0274658,0.0241089,0.0192261,0.0332642,0.0411987,0.0222778,0.0271606,0.022583,0.0180054,0.0167847,-0.0335693,0.0247192,0.0415039
46,3,0.0201416,0.0344849,0.0378418,0.0323486,0.0396729,0.0448608,0.017395,0.0238037,0.00366211,0.0238037,-0.0186157,0.0195312,0.00457764
46,4,0.0134277,0.0299072,0.0204468,0.0311279,0.0302124,0.0201416,0.0292969,0.0106812,0.0131226,0.0250244,-0.0131226,0.0186157,0.0238037
47,0,0.0222778,0.0262451,0.0274658,0.03479,0.032959,0.0250244,0.0189209,0.0213623,0.0292969,-0.000610352,-0.0167847,0.0366211,0.0314331
47,1,0.0222778,0.0390625,0.108337,0.0332642,0.0259399,0.0366211,0.043335,0.00823975,0.0125122,0.0146484,-0.0161743,0.0112915,-0.0259399
47,2,0.0335693,0.0259399,0.0634766,0.0411987,0.0231934,0.050354,0.0250244,0.0125122,0.0857544,0.0161743,-0.0109863,0.0457764,0.012207
47,3,0.0244141,0.0231934,0.0247192,0.0305176,0.0323486,0.0271606,0.0167847,0.0216675,0.0262451,0.0143433,-0.027771,0.0250244,0.00183105
47,4,0.0219727,0.0344849,0.0201416,0.0283813,0.0460815,0.0357056,0.0170898,0.0738525,0.0311279,0.00366211,-0.0256348,0.015564,0.0131226
48,0,0.0125122,0.0305176,0.0152588,-0.0262451,0.0497437,0.0244141,0.0274658,-0.00732422,0.00946045,0.00946045,-0.0140381,0.0283813,0.0265503
48,1,0.0234985,0.0311279,0.00823975,0.0384521,0.0415039,0.0378418,0.0265503,0.0186157,0.00244141,0.015564,0.0201416,0.0335693,0.0283813
48,2,0.0299072,0.0357056,-0.0366211,0.0256348,0.0476074,0.0738525,0.00793457,0.017395,-0.0338745,0.020752,-0.0137329,0.0192261,0.0366211
48,3,0.0216675,0.0283813,-0.0662231,0.0204468,0.0506592,0.0360107,0.0305176,0.039978,0.00579834,0.0125122,-0.015564,0.010376,0.0244141
48,4,0.0210571,-0.0186157,-0.0497437,0.0112915,0.0341797,0.0280762,0.0424194,0.0244141,0.0247192,0.0152588,-0.0238037,0.0292969,-0.0125122
49,0,0.0177002,0.0241089,-0.0378418,0.0198364,0.032959,0.0650024,0.0271606,0.020752,0.0302124,0.0195312,-0.0177002,0.00793457,0.0241089
49,1,0.0366211,0.0256348,-0.0274658,0.0189209,0.0405884,0.0253296,0.0314331,0.0167847,0.0152588,0.0189209,-0.0366211,0.03479,0.0088501
49,2,0.0210571,0.0161743,-0.00488281,0.0222778,0.0408936,0.0234985,0.0195312,-0.0180054,0.0149536,0.0302124,-0.0164795,0.020752,0.0460815
49,3,0.0228882,0.0463867,0.0408936,0.00549316,0.020752,0.0369263,0.015564,0.020752,0.0268555,0.000305176,-0.0247192,0.00396729,0.0222778
49,4,-0.00915527,0.0311279,0.0457764,0.0201416,0.0265503,0.0302124,0.0244141,0.0177002,0.00762939,0.015564,-0.00701904,0.0201416,0.0308228
50,0,0.0137329,0.0228882,-0.0177002,0.0289917,0.0265503,0.0387573,0.0302124,0.0213623,0.00915527,0.00732422,-0.0311279,0.0161743,0.0271606
50,1,0.0177002,0.0357056,0.0653076,0.0292969,0.0289917,0.0442505,0.0268555,0.0302124,0.022583,0.00549316,-0.0219727,0.0314331,0.0244141
50,2,0.0119019,0.0247192,0.105286,0.00183105,0.0296021,0.032959,0.0192261,0.0283813,0.010376,0.010376,-0.0149536,0.00610352,0.0286865
50,3,0.015564,0.0515747,0.137329,0.032959,0.0344849,0.0247192,0.03479,0.0143433,0.00579834,0.0125122,-0.0167847,0,0
50,4,0.015564,0.0161743,0.116577,0.0402832,0.0222778,0.0241089,0.0302124,0.0201416,0.0463867,0.020752,-0.022583,0.0311279,0.0360107
51,0,0.017395,0.0320435,0.10376,0.0354004,0.0421143,0.0570679,0.03479,0.0204468,0.0442505,0.0250244,-0.0213623,0.0476074,0.032959
51,1,0.0167847,0.0231934,0.062561,0.0201416,0.0372314,0.0372314,0.0302124,0.0341797,0.0140381,0.0256348,-0.0592041,0.020752,0.0311279
51,2,0.0271606,0.0158691,0.0457764,0.03479,0.0289917,-0.0289917,0.0332642,0.0250244,-0.00946045,0.0158691,-0.00518799,0.0183105,0.0247192
51,3,0.0253296,0.0167847,0.0384521,0.0204468,0.0909424,0.0405884,0.0234985,0.0134277,0.0158691,0.0112915,-0.0274658,0.0234985,0.0286865
51,4,0.00152588,0.00518799,0.0167847,0.0515747,0.0241089,0.0213623,0.0213623,0.0164795,0.0170898,0.0100708,-0.0271606,0.015564,0.0146484
52,0,0.0112915,0.0125122,0.0195312,-0.0128174,0.0360107,0.0354004,-0.0271606,0.0234985,0.0183105,-0.0393677,-0.0357056,0.0143433,0.0259399
52,1,0.0244141,0.00457764,-0.0292969,0.045166,0.0427246,0.0299072,0.0192261,0.0222778,0.0195312,0.0210571,-0.0125122,0.0369263,0.00946045
52,2,0.00640869,0.0216675,-0.0628662,0.0415039,0.0262451,0.0250244,0.0717163,0.0131226,0.0204468,-0.0405884,-0.010376,0.0262451,0.0234985
52,3,0.015564,0.00427246,-0.0582886,0.0320435,0.0378418,0.0326538,0.03479,0.0689697,0.015564,0.0161743,-0.00640869,0.0152588,0.0311279
52,4,0.000305176,0.0201416,-0.0418091,0.0360107,0.0256348,0.0195312,0.0335693,0.0167847,0.015564,0.0186157,-0.0177002,0.00610352,0.0558472
53,0,0.0308228,0.0106812,-0.0387573,0.0177002,0.0128174,0.0393677,0.0350952,0.0247192,0.0231934,0.0180054,-0.038147,0.0149536,0.0271606
53,1,0.00305176,0.0170898,-0.000915527,0.0384521,0.0247192,0.0375366,0.0317383,0.0167847,0.0216675,0.0125122,-0.0360107,0.0775146,0.0180054
53,2,0.0186157,0.00701904,-0.0119019,0.0201416,0.0350952,0.0372314,0.0231934,0.0268555,0.0311279,0.0204468,-0.0204468,-0.00396729,0.0247192
53,3,0.027771,0.0149536,0.0265503,0.0317383,0.00915527,0.0253296,0.0390625,0.0183105,0.0262451,-0.00152588,-0.0164795,0.0219727,-0.00213623
53,4,0.0164795,0.0238037,0.0152588,0.0244141,0.0198364,0.0778198,0.0219727,0.0167847,0.0219727,0.03479,-0.0195312,0.0152588,0.0167847
54,0,0.0408936,0.020752,0.0524902,0.0192261,0.0283813,0.017395,0.0787354,0.0289917,0.0262451,-0.0198364,-0.022583,0.00640869,0.0314331
54,1,0.0100708,0.0564575,0.0753784,0.0302124,0.0326538,0.0250244,0.0262451,0.0161743,0.020752,0.0164795,-0.0268555,0.00549316,0.0265503
54,2,0.0170898,0.0164795,0.102234,0.0326538,0.0244141,0.0357056,0.0366211,0.0357056,0.0259399,0.00671387,-0.0424194,0.0244141,0.012207
54,3,0.0143433,0.00366211,0.12085,0.0369263,0.0305176,0.0402832,0.0234985,0.0924683,0.0289917,0.0302124,-0.0296021,-0.000305176,0.022583
54,4,0.0201416,0.0210571,0.088501,0.0161743,0.017395,0.0253296,0.0305176,0.050354,0.0167847,0.0265503,-0.0286865,0.0247192,0.022583
55,0,0.00915527,0.0131226,0.0933838,0.0286865,0.00152588,0.0494385,0.0323486,-0.0161743,0.0253296,0.020752,-0.0253296,0.0164795,0.012207
55,1,0.00732422,0.0552368,0.0683594,0.0344849,0.0570679,0.0372314,0.022583,0.043335,0.0259399,0.0177002,-0.0186157,0.0128174,0.0280762
55,2,-0.00610352,0.00640869,0.0769043,0.0265503,0.0231934,0.0268555,-0.00488281,0.027771,0.0286865,-0.0320435,-0.022583,0.0219727,-0.0344849
55,3,0.0164795,0.00518799,0.0299072,0.0488281,0.0341797,0.0280762,0.0189209,0.0106812,0.0164795,0.0112915,-0.0216675,0.0473022,0.0357056
55,4,0.0811768,0.00427246,-0.000610352,-0.00366211,0.0234985,0.0341797,0.0289917,0.0158691,0.0311279,0.0271606,-0.0189209,0.00335693,0.0302124
56,0,0.0219727,0.00427246,0.027771,0.0271606,0.0372314,0.0720215,0.0390625,0.0216675,0.067749,0.0286865,-0.0262451,0.062561,0.0292969
56,1,0.00854492,0.0195312,0.0271606,0.0350952,0.0296021,0.0372314,0.0177002,0.0186157,0.06073,0.0253296,-0.015564,0.0158691,0.0213623
56,2,0.012207,0.0195312,-0.050354,0.0326538,0.0314331,0.0534058,0.0238037,0.0222778,-0.00640869,-0.00793457,-0.022583,-0.000915527,0.0308228
56,3,0.0149536,0.00244141,-0.125427,0.0149536,0.020752,0.0213623,0.038147,0.0308228,0.0143433,-0.00213623,-0.0149536,0.00823975,0.00305176
56,4,0.0799561,0.0201416,-0.0222778,0.0820923,0.0411987,0.0396729,0.00457764,0.017395,0.0137329,-0.0311279,-0.0469971,0.0231934,0.0149536
57,0,0.0195312,0.00457764,-0.0524902,0.0234985,0.0268555,0.0186157,0.022583,0.0271606,-0.0198364,0.00579834,-0.0204468,0.0436401,0.0170898
57,1,0.00946045,0.0125122,-0.0244141,0.0823975,0.0299072,0.0323486,-0.000305176,0.0308228,0.0250244,0.00396729,-0.0289917,0.0244141,0.0302124
57,2,0.015564,0.0253296,-0.015564,0.0115967,0.039978,0.0332642,0.0408936,-0.00915527,0.0213623,-0.00915527,-0.0405884,0.0198364,0.0161743
57,3,0.0210571,0.0109863,0.00823975,0.020752,0.0231934,0.0366211,0.0231934,0.020752,0.0137329,0.00396729,-0.0442505,0.00488281,0.027771
57,4,0.0231934,0.0238037,0.0326538,0.0253296,0.0302124,0.0195312,0.0402832,0.0485229,-0.0256348,0.00671387,-0.0311279,0.09552,0.0244141
58,0,0.0180054,-0.0100708,0.0354004,0.0143433,0.0271606,0.0527954,0.0250244,0.0186157,0.0125122,0.0189209,-0.0247192,-0.0186157,0.0354004
58,1,0.0177002,-0.00488281,0.0708008,0.0106812,0.0204468,0.0344849,0.027771,0.0338745,0.0177002,0.00732422,-0.0161743,0.027771,0.0268555
58,2,-0.00793457,0.00946045,0.108643,0.0115967,0.0360107,0.0201416,0.0579834,0.0268555,0.0341797,0.00579834,0.00854492,0.0201416,0.0088501
58,3,-0.00152588,0.0146484,0.0576782,0.0140381,0.0305176,0.0787354,0.0286865,0.022583,0.0595093,0.0164795,-0.0201416,0.0012207,0.00915527
58,4,0.027771,0.0283813,0.0888062,0.0650024,0.0375366,0.0396729,-0.0256348,0.022583,0.0268555,0.00305176,-0.0180054,0.0241089,0.0195312
59,0,-0.00579834,0.00854492,0.0799561,0.0561523,0.0128174,0.0320435,0.0341797,0.0500488,0.0170898,-0.00457764,-0.015564,0.0164795,0.0253296
59,1,0.0405884,0.0219727,0.0668335,0.0012207,0.0234985,0.0421143,0.00305176,0.0427246,0.0234985,0.0131226,-0.0299072,0.0183105,0.00946045
59,2,0.0949097,0.0177002,0.0585938,0.102234,0.0244141,0.0363159,0.0811768,0.0494385,0.0210571,0.0811768,0.00579834,0.0250244,0.0823975
59,3,0.0198364,0.0088501,-0.0140381,0.0390625,0.0332642,0.0515747,0.0283813,0.0198364,0.0741577,0.010376,-0.0323486,0.0112915,0.0286865
59,4,0.0244141,-0.00976562,0.000610352,0.0360107,-0.0100708,0.0323486,0.0372314,0.0119019,0.0195312,0.0164795,-0.0363159,0.00640869,0.0143433
60,0,0.0354004,0.00457764,0.0100708,0.0228882,0.032959,0.0268555,0.0204468,0.03479,0.0283813,0.0253296,-0.0213623,0.0216675,0.0186157
60,1,0.015564,0.00610352,0.00183105,0.0375366,0.0305176,0.00366211,0.0259399,0.0558472,0.0222778,0.017395,-0.0177002,0.00671387,0.00457764
60,2,0.0128174,-0.0509644,-0.0909424,0.0341797,0.0320435,0.0387573,0.0445557,0.0543213,0.0299072,0.00183105,-0.0314331,-0.000915527,0.0112915
60,3,-0.00457764,0.0558472,-0.0967407,0.0424194,0.0152588,0.0335693,0.0616455,0.0421143,0.0378418,0.00915527,-0.0201416,0.0506592,-0.00335693
60,4,0.0286865,0.0137329,-0.0317383,0.03479,0.0253296,0.0109863,0.0302124,0.0354004,0.0134277,0.020752,-0.0161743,0.00732422,0.0158691
61,0,0.0234985,0.0268555,-0.00854492,0.0372314,0.0265503,0.0970459,0.0408936,0.00640869,0.093689,0.0283813,-0.0164795,-0.022583,0.0262451
61,1,0.0140381,0.0106812,-0.0424194,0.0244141,0.0146484,0.0286865,0.0253296,-0.00854492,0.0259399,0.0137329,-0.0180054,0.0100708,0.0393677
61,2,0.0137329,0.0149536,-0.00366211,0.0378418,0.0241089,0.0161743,0.0366211,0.032959,0.0231934,-0.0283813,-0.0125122,0.0354004,0.000915527
61,3,0.0830078,0.0231934,-0.00549316,-0.0247192,0.0216675,0.0354004,0.0299072,0.0378418,0.0231934,0.00762939,-0.0296021,0.0167847,0.0149536
61,4,0.00762939,0.0177002,0.0323486,0.0427246,0.0204468,0.0292969,0.0350952,0.0283813,0.0411987,0.020752,-0.0228882,0.0219727,0.010376
62,0,0.0186157,0.0195312,0.0198364,0.0283813,-0.0296021,0.0311279,0.0445557,0.0912476,0.0289917,0.0143433,-0.00579834,0.00671387,0.00549316
62,1,0.0183105,0.012207,0.0531006,0.0354004,0.0326538,0.0204468,0.0314331,-0.0170898,0.0177002,-0.0012207,-0.0186157,0.0115967,0.0268555
62,2,0.0195312,0.0143433,0.0744629,0.022583,0.0357056,0.032959,0.0271606,0.0442505,0.0933838,0.0164795,-0.0143433,-0.0164795,0.0247192
62,3,0.0305176,0.0012207,0.0930786,0.032959,0.00152588,0.03479,0.0369263,0.0463867,0.0259399,0.00701904,-0.00305176,0.012207,0.00732422
62,4,0.0216675,-0.0448608,0.0790405,0.0283813,0.010376,0.0250244,0.0244141,0.0616455,0.0369263,0.0332642,-0.0286865,0.0216675,0.00366211
63,0,0.00183105,0.0161743,0.100708,0.0308228,0.0256348,0.0286865,0.0335693,0.03479,0.0177002,0.0234985,-0.0247192,-0.00579834,-0.00854492
63,1,0.00518799,0.0112915,0.0772095,0.0479126,0.0378418,0.0326538,0.00549316,0.0259399,0.0247192,0.0631714,-0.0296021,0.022583,0.0131226
63,2,0.0152588,0.015564,0.0558472,0.0183105,0.022583,0.0253296,0.0576782,0.0256348,0.0195312,0.0189209,-0.0292969,0.0247192,0.0088501
63,3,0.0198364,0.00823975,-0.010376,0.038147,0.0296021,-0.000915527,0.0387573,0.0408936,0.0546265,0.0299072,-0.0146484,0.078125,0.0183105
63,4,0.0369263,-0.0326538,-0.00366211,0.0378418,0.0366211,0.0204468,0.0308228,0.0363159,0.027771,0.00701904,-0.0354004,0.0128174,0.0204468
64,0,-0.00762939,0.0106812,0.0186157,0.0457764,0.0268555,0.0137329,0.0418091,0.0405884,0.0189209,0.0418091,-0.0305176,0.0241089,0.0161743
64,1,0.020752,-0.012207,-0.0195312,0.0326538,0.0350952,0.0238037,0.0360107,0.0366211,0.0292969,0.0152588,-0.0241089,0.0152588,0.0164795
64,2,0.0479126,-0.00274658,-0.0604248,0.0363159,0.0396729,0.0268555,0.0570679,0.0231934,0.0177002,-0.0366211,-0.00549316,0.00915527,0.0396729
64,3,0.0216675,0.0228882,-0.0778198,0.0192261,0.0109863,0.0643921,0.0405884,0.0360107,0.0256348,0.0210571,-0.0604248,0.0167847,0.0189209
64,4,0.0274658,0.0372314,-0.0610352,0.0280762,0.0540161,0.015564,0.0357056,0.0363159,0.0247192,0.0189209,0.0109863,0.00915527,0.0106812
65,0,0.0213623,0.00640869,-0.0723267,0.00915527,0.0134277,0.0222778,0.0271606,-0.0238037,0.0265503,0.0375366,-0.0195312,0.0219727,0.017395
65,1,0.0234985,0.057373,-0.0415039,0.0195312,-0.0204468,0.00457764,0.0228882,0.0680542,0.0296021,0.0161743,-0.0213623,0.0387573,0.022583
65,2,0.0521851,0.017395,-0.0442505,-0.00823975,0.0250244,0.0204468,0.0323486,0.0372314,0.0338745,0.022583,-0.00274658,0.0228882,0.0186157
65,3,0.0363159,0.0201416,-0.0317383,0.0210571,0.0302124,-0.0228882,0.0222778,0.0201416,0.0271606,0.0497437,-0.0201416,0.0280762,0.0213623
65,4,0.0338745,0.0238037,0.0454712,0.0335693,0.0357056,0.0109863,0.0253296,0.0286865,0.032959,-0.0494385,-0.0180054,0.0338745,0.0537109
66,0,0.0128174,0.0170898,-0.00579834,0.027771,0.0274658,0.0354004,0.0363159,0.0283813,0.0170898,0.022583,-0.0302124,0.0354004,0.0109863
66,1,0.0543213,0.0128174,0.0708008,0.0601196,0.0231934,0.0231934,-0.000610352,0.0308228,0.0283813,0.0759888,-0.0335693,0.0192261,0.0115967
66,2,0.00427246,0.00854492,0.0814819,0.0152588,0.0265503,0.0390625,0.0286865,0.0369263,0.0299072,0.0271606,-0.0213623,0.0167847,0.00946045
66,3,0.0115967,0.0726318,0.116272,0.0280762,-0.0265503,0.0305176,0.0332642,0.0283813,0.0292969,0.0100708,-0.0286865,0.0344849,0.0216675
66,4,0.0341797,0.0262451,0.109253,0.0296021,0.0170898,0.00762939,0.022583,0.0292969,-0.0131226,0.0152588,-0.0164795,0.083313,0.0491333
67,0,0.0283813,0.00762939,0.108948,0.0283813,0.00732422,0.0238037,0.032959,0.00793457,0.0134277,-0.000610352,-0.0543213,0.0146484,0.0210571
67,1,0.0338745,0.0167847,0.0933838,-0.00488281,0.0286865,-0.0216675,0.03479,0.0408936,0.0674438,-0.000915527,-0.0286865,0.0192261,0.0140381
67,2,0.0292969,0.00854492,0.129395,0.0146484,0.0311279,0.00610352,0.0344849,0.0323486,0.039978,0.000915527,-0.0259399,0.0143433,0.0588989
67,3,0.0158691,0.0286865,0.0918579,0.0228882,0.0204468,0.000610352,0.0335693,0.0292969,0.0201416,0.0195312,-0.038147,0.0100708,0.0088501
67,4,0.0323486,-0.0363159,0.0915527,0.0241089,0.0244141,0.0222778,0.0491333,0.0585938,0.0201416,0.0210571,-0.015564,0.0320435,0.00915527
68,0,0.0247192,0.0186157,0.0668335,0.0286865,0.0323486,0.0305176,0.0289917,0.0378418,0.0228882,0.03479,-0.0292969,0.027771,0.00457764
68,1,0.032959,0.00549316,-0.0234985,0.0170898,0.0210571,0.00244141,0.0253296,0.0430298,0.0363159,0.0234985,-0.0445557,0.0305176,0.0119019
68,2,0.0274658,0.00610352,-0.0668335,0.0213623,0.0735474,0.0234985,0.0320435,0.0732422,0.0198364,0.0341797,-0.0250244,0.0177002,0.00488281
68,3,0.0280762,0.0308228,-0.0473022,0.020752,0.0119019,0.0613403,0.0244141,0.0323486,-0.00946045,0.0274658,-0.0210571,0.00579834,0.0292969
68,4,0.0494385,0.015564,-0.0891113,0.0317383,0.0115967,0.0128174,0.0888062,0.0387573,0.0271606,0.0497437,-0.0256348,0.0286865,0.0640869
69,0,0.0228882,0.0109863,-0.0460815,0.0170898,0.0335693,0.0204468,0.0152588,-0.00793457,0.0320435,0.017395,-0.022583,0.0280762,0.0344849
69,1,0.0811768,0.0457764,-0.0802612,-0.0256348,0.0161743,0.0216675,0.0250244,0.0152588,0.0244141,0.0299072,-0.0201416,0.0231934,0.0134277
69,2,0.0485229,0.0274658,-0.0100708,-0.0543213,0.0326538,0.017395,-0.0115967,0.0195312,0.0204468,0.0604248,-0.0387573,0.0161743,0.0622559
69,3,0.0418091,0.0265503,-0.0256348,0.0189209,0.0308228,0.0283813,0.0244141,0.0326538,0.0296021,0.0390625,-0.0198364,0.0228882,0.0177002
69,4,0.0231934,0.0256348,0.043335,0.00854492,0.00457764,0.0311279,0.0363159,0.022583,-0.0204468,0.0354004,-0.0335693,0.000915527,0.0234985
70,0,0.0259399,0.00823975,0.0491333,0.0222778,0.0338745,-0.00366211,0.0158691,0.0259399,0.0292969,0.0216675,-0.0430298,0.0189209,0.0256348
70,1,0.0253296,0.0234985,0.0534058,0.00915527,0.0238037,0.0488281,0.0213623,0.00640869,0.0299072,0.0320435,-0.0286865,0.00396729,0.0106812
70,2,0.0369263,0.0119019,0.0759888,-0.000610352,0.0411987,0.00854492,0.0360107,0.0198364,0.0341797,0.03479,-0.0268555,0.0189209,0.0128174
70,3,0.0299072,0.0192261,0.117188,0.00640869,0.0323486,0.0384521,0.0201416,0.027771,0.0308228,0.0741577,-0.0332642,0.0231934,0.0167847
70,4,0.0387573,0.0140381,0.090332,0.0146484,0.0189209,0.0088501,0.0296021,0.0430298,0.0137329,0.0604248,-0.0637817,0.0210571,0.017395
71,0,0.0320435,0.0100708,0.0891113,0.0256348,-0.0134277,0.0241089,0.0244141,0.0466919,0.0402832,0.062561,-0.0170898,0.0204468,0.0222778
71,1,0.0280762,0.0262451,0.0991821,0.0189209,0.0131226,0.0299072,0.0140381,0.0302124,0.0326538,0.0741577,-0.0369263,0.0152588,0.0134277
71,2,0.0299072,0.0354004,0.0509644,0.0231934,0.00244141,0.0317383,0.0289917,0.0238037,0.0485229,0.065918,-0.0265503,0.0274658,0.0344849
71,3,0.0241089,0.0198364,0.0262451,0.0308228,0.0167847,0.017395,0.00488281,0.0244141,0.0738525,0.0561523,-0.0280762,0.0170898,0.0115967
71,4,0.0183105,0.0241089,0.0119019,0.0274658,0.0231934,0.0137329,0.0210571,0.0274658,0.0320435,0.0650024,-0.0308228,0.0204468,0.017395
72,0,0.0308228,0.012207,0.0280762,0.0341797,0.0238037,0.0247192,-0.0280762,0.0222778,0.0323486,0.109863,-0.0271606,0.0170898,0.0482178
72,1,0.0186157,0.020752,-0.00976562,0.015564,0.0152588,0.0265503,-0.00427246,0.0195312,0.0378418,0.103149,-0.0360107,0.022583,0.020752
72,2,0.0265503,0.0311279,-0.0186157,0.0213623,0.0088501,0.0250244,0.0274658,0.0357056,0.0415039,0.103149,-0.0354004,0.0143433,0.0143433
72,3,-0.0390625,0.0204468,-0.0869751,-0.0473022,0.00762939,0.010376,0.0158691,0.0189209,0.0506592,0.067749,-0.0369263,0.0210571,0.017395
72,4,0.0372314,0.0485229,-0.06073,0.00366211,0.00915527,0.012207,0.00457764,0.0186157,0.0204468,0.0588989,-0.0262451,0.0143433,0.0280762
73,0,0.0390625,0.0259399,-0.102234,0.0115967,0.0109863,-0.0390625,0.0317383,0.0296021,0.0518799,0.0546265,-0.0408936,0.0183105,0.039978
73,1,0.0323486,0.0302124,-0.0619507,0.0146484,-0.0012207,0.0164795,0.0238037,0.0167847,0.0317383,0.0704956,-0.0238037,0.0152588,0.0247192
73,2,0.0338745,0.0375366,-0.0244141,0.0421143,0.0088501,0.022583,0.00396729,0.022583,0.0357056,0.0671387,-0.0335693,0.0125122,-0.0256348
73,3,0.0350952,0.0259399,0.0524902,0.0247192,0.0256348,0.09552,0.0262451,0.0314331,0.106506,0.06073,-0.0311279,0.0881958,0.032959
73,4,0.0283813,0.0112915,0.0540161,0.0283813,0.00579834,0.0228882,0.0305176,0.0238037,0.0393677,0.0631714,-0.0228882,0.0430298,0.0250244
74,0,0.0216675,0.0228882,0.0271606,0.0204468,-0.0234985,0.0186157,0.0344849,0.000915527,0.0234985,0.0524902,-0.015564,0.0250244,0.0292969
74,1,0.0387573,0.0634766,0.0369263,-0.000915527,0.0201416,0.0332642,0.00762939,0.0210571,0.0274658,0.0579834,-0.0378418,0.0408936,0.0350952
74,2,0.0158691,0.0241089,0.0704956,0.0250244,0.0219727,0.0161743,0.0167847,0.0280762,0.0292969,0.0585938,-0.0213623,0.0308228,0.0476074
74,3,0.0198364,-0.0143433,0.118713,0.0274658,0.0238037,0.015564,0.0292969,0.0250244,0.0134277,0.0463867,-0.0323486,0.0393677,0.0268555
74,4,0.0332642,0.0241089,0.133362,0.0326538,0.0305176,-0.0314331,0.0299072,0.0146484,0.0180054,0.0219727,-0.0283813,0.0262451,0.0411987
75,0,0.0390625,0.0460815,0.116272,0.0268555,0.00976562,0.0164795,0.0524902,0.0137329,0.0372314,0.0460815,-0.0372314,0.0500488,0.0274658
75,1,0.0164795,0.0238037,0.0918579,-0.0274658,0.0210571,0.0265503,0.0863647,0.0311279,0.0259399,-0.0201416,-0.0296021,0.0198364,0.0515747
75,2,0.0286865,0.0234985,0.0497437,0.0177002,0.00976562,0.0143433,0.0323486,0.0274658,0.0390625,0.027771,-0.0366211,0.0344849,0.0180054
75,3,0.0250244,0.0253296,0.0299072,0.0299072,0.0146484,0.0317383,0.0250244,0.0106812,0.0161743,0.0100708,-0.0552368,0.0286865,0.0491333
75,4,0.0357056,0.0646973,-0.0323486,0.0152588,0.0228882,0.0222778,0.0161743,0.0314331,0.0341797,0.0308228,-0.0344849,0.0460815,0.0274658
76,0,0.0363159,0.0354004,0.00518799,0.0210571,0.0146484,0.039978,-0.00335693,0.0146484,0.0244141,-0.00396729,-0.032959,0.00854492,0.0668335
76,1,0.0271606,0.0366211,-0.0296021,0.020752,0.00579834,0.032959,0.0192261,0.0137329,0.0335693,0.0408936,-0.0402832,0.0390625,0.0317383
76,2,0.0454712,0.0393677,-0.0189209,0.0247192,0.0106812,0.00732422,0.0180054,0.012207,0.0244141,0.0363159,-0.0247192,0.0335693,0.0189209
76,3,0.0314331,0.0363159,-0.0500488,-0.00518799,0.0119019,0.0088501,0.0274658,0.0314331,0.0210571,0.027771,-0.045166,0.027771,0.0354004
76,4,0.0320435,0.0436401,-0.0576782,0.0164795,0.0149536,0.0125122,0.0195312,0.0247192,0.0384521,0.0518799,-0.0384521,0.0271606,0.0384521
77,0,0.0317383,0.0177002,-0.0436401,0.00671387,0.0274658,-0.00610352,0,0.0320435,0.0265503,0.038147,-0.0363159,0.0299072,0.0299072
77,1,0.0314331,0.0283813,-0.0170898,0.0308228,0.0140381,0.00457764,-0.00305176,0.00701904,0.0213623,0.0311279,-0.0323486,0.0244141,0.0320435
77,2,0.0262451,0.0250244,-0.0531006,0.00671387,0.0189209,0.00488281,0.0628662,0.022583,0.0259399,0.0411987,-0.045166,0.0213623,0.0247192
77,3,0.0363159,0.0534058,-0.00793457,0.0164795,0.00915527,0.0305176,0.0146484,0.0268555,0.0973511,0.0372314,-0.0286865,0.0686646,0.0167847
77,4,0.0140381,-0.0131226,0.0479126,0.0219727,-0.0198364,-0.00488281,0.0204468,-0.00183105,0.0390625,0.0314331,-0.0238037,0.0418091,0.0369263
78,0,0.0210571,0.017395,0.012207,0.0222778,0.00732422,0.0216675,0.0164795,0.0350952,0.0268555,0.0152588,-0.0341797,0.0317383,0.0134277
78,1,0.0570679,0.050354,0.0561523,0.0146484,0.00793457,0.00335693,0.0250244,0.0256348,0.0274658,0.0167847,-0.0372314,0.0286865,0.0302124
78,2,0.0387573,0.0280762,0.0735474,0.0177002,0.0189209,-0.0131226,0.015564,-0.0177002,0.0357056,0.0234985,-0.0778198,0.0198364,0.0314331
78,3,0.0302124,0.0372314,0.111694,0.015564,0.0222778,0.015564,0.0119019,0.0238037,0.0210571,0.0259399,-0.0436401,0.0247192,0.0454712
78,4,0.0393677,0.0180054,0.111694,0.0152588,0.0186157,-0.00366211,0.00640869,0.0390625,0.0210571,0.0320435,-0.0158691,0.0247192,0.0317383
79,0,0.0540161,0.0408936,0.0970459,-0.0112915,0.0204468,0.0158691,0.0265503,0.0210571,0.027771,0.027771,-0.0335693,0.0558472,0.0167847
79,1,0.0341797,0.0332642,0.112305,0.0234985,0.0323486,0.0299072,0.0164795,0.0186157,0.0305176,0.0259399,-0.0302124,0.0131226,0.0112915
79,2,0.0357056,0.0427246,0.148621,0.0375366,0.0164795,0.0292969,0.0088501,0.0119019,0.0701904,0.000305176,-0.0436401,-0.00976562,0.0363159
79,3,0.0469971,0.00305176,0.0421143,0.0299072,0.039978,0.022583,0.0112915,0.0286865,0.0228882,0.015564,-0.0180054,0.0323486,0.0363159
79,4,0.0424194,0.0408936,0.0140381,0.0442505,0.0271606,0.0283813,-0.0311279,0.0119019,0.0164795,0.0241089,-0.0326538,0.0350952,0.0338745
80,0,0.0286865,0.0247192,0.0280762,0.0286865,0.0115967,0.0262451,0.0231934,-0.0268555,0.0241089,0.0222778,-0.0537109,0.0170898,0.0311279
80,1,0.0158691,0.0332642,-0.0335693,0.022583,0.0167847,-0.015564,0.0143433,0.0137329,0.0311279,0.00610352,-0.0262451,0.062561,0.0378418
80,2,0.0326538,0.045166,-0.0161743,0.0177002,0.00579834,0.00762939,0.0186157,0.0213623,0.0100708,0.0167847,-0.0369263,0.0286865,0.0326538
80,3,0.0415039,0.0250244,-0.0534058,0.0137329,0.0222778,0.0222778,0.0283813,0.0161743,0.0363159,0.00854492,-0.0292969,0.0878906,0.0411987
80,4,0.039978,0.0268555,-0.0610352,0.00610352,0.0247192,0.0119019,0.0146484,0.0314331,-0.0192261,0.0204468,-0.0228882,0.0234985,0.0460815
81,0,0.0311279,0.0296021,-0.0546265,0.010376,0.0186157,0.00244141,0.0183105,0.0195312,0.0332642,0.0247192,-0.0390625,0.0875854,0.0265503
81,1,0.0411987,0.0326538,-0.0326538,0.0183105,0.0216675,0.0115967,0.0241089,0.0286865,0.0332642,0.0299072,-0.0286865,0.0567627,0.0311279
81,2,0.0186157,0.0292969,-0.0311279,0.00762939,0.000610352,0.0180054,0.0219727,0.0161743,0.0146484,0.0128174,-0.0448608,0.0265503,0.0341797
81,3,0.0366211,0.0354004,0.0152588,0.00396729,0.0216675,0.015564,0.010376,0.0286865,0.0140381,-0.0158691,-0.032959,0.0262451,-0.0170898
81,4,0.0253296,-0.0195312,0.0567627,0.0131226,-0.0531006,0.0115967,0.0167847,-0.0268555,0.0222778,0.0180054,-0.0231934,0.00335693,0.0320435
82,0,0.0408936,0.0415039,0.0527954,0.0332642,0.0268555,0.0198364,0.0326538,0.0228882,0.0170898,0.0134277,-0.00915527,0.0286865,0.0332642
82,1,0.038147,0.0299072,0.0561523,-0.00701904,0.0314331,0.020752,0.0201416,0.0216675,0.0167847,-0.0119019,-0.0305176,0.0326538,0.050354
82,2,0.0308228,0.0134277,0.0552368,0.0689697,0.0253296,0.0183105,0.0341797,0.0274658,0.00732422,0.0250244,-0.0323486,0.0418091,0.0408936
82,3,0.0616455,0.0332642,0.0982666,0.072937,0.0305176,0.00488281,-0.0454712,0.0271606,0.022583,0.0216675,-0.0366211,0.0326538,0.0280762
82,4,0.0354004,0.038147,0.134583,0.0152588,0.0350952,0.00946045,0.0088501,0.020752,0.0302124,0.0241089,-0.0296021,0.0442505,0.0247192
83,0,0.0299072,0.0112915,0.108948,0.0201416,0.0158691,0.0219727,0.00701904,0.0250244,0.00396729,0.0146484,-0.0189209,0.0311279,0.03479
83,1,0.0512695,0.0256348,0.0808716,0.0186157,-0.0238037,0.0189209,0.0140381,0.0314331,0.012207,0.0222778,-0.0338745,0.0106812,0.0228882
83,2,0.0341797,0.0323486,0.0891113,0.0262451,0.0253296,0.00946045,0.0134277,0.0146484,0.0177002,0.0271606,-0.0283813,0.0335693,0.0265503
83,3,0.0271606,-0.03479,0.0631714,0.0216675,0.0601196,0.010376,0.0210571,-0.0357056,0.0146484,0.0106812,-0.0259399,0.0152588,0.0302124
83,4,0.0326538,0.0204468,0.012207,0.00701904,0.0183105,0.0183105,0.0210571,0.0216675,0.0311279,0.00213623,-0.0198364,0.039978,0.0256348
84,0,0.0344849,0.027771,-0.0741577,0.0375366,0.0231934,0.0360107,0.0305176,0.0262451,0.0131226,0.00762939,-0.0256348,0.0256348,0.0167847
84,1,0.0363159,0.0344849,0.00976562,0.012207,0.0210571,0.0164795,0.0100708,0.00793457,0.00457764,0.0149536,-0.0335693,0.0344849,0.0357056
84,2,0.0280762,-0.0341797,-0.00976562,0.0137329,0.0238037,-0.00488281,0.0161743,0.0210571,0.0244141,0.0195312,-0.0350952,0.0274658,0.0289917
84,3,0.0418091,0.017395,-0.0738525,0.017395,0.0198364,0.0149536,0.00152588,0.0146484,0.0231934,0.0213623,-0.0228882,0.0241089,-0.0357056
84,4,0.0311279,0.0457764,-0.0579834,0.0112915,-0.0106812,0.0308228,0.0302124,0.0772095,0.0198364,0.0140381,-0.0247192,0.0186157,0.0323486
85,0,0.0314331,0.09552,-0.0610352,0.00457764,0.0567627,0.0177002,0.0210571,0.0241089,0.0216675,0.00793457,-0.0140381,0.0305176,0.0204468
85,1,0.0259399,0.038147,-0.0592041,0.00610352,-0.0262451,0.0152588,0.0271606,-0.00457764,0.0250244,0.0192261,-0.0305176,0.0289917,0.0247192
85,2,0.0317383,0.0213623,-0.0582886,0.0149536,0.00305176,0.0244141,0.0186157,0.00915527,0.0228882,0.022583,-0.0262451,0.0390625,0.0372314
85,3,0.0354004,0.0390625,-0.067749,0.0280762,0.0180054,0.0292969,-0.00396729,0.0296021,0.0183105,-0.0320435,-0.0311279,0.0320435,0.027771
85,4,0.0146484,0.0421143,-0.0457764,0.0164795,0.0161743,0.0567627,0.0183105,0.0241089,0.0247192,0.0274658,-0.0299072,0.0308228,0.0256348
86,0,0.0650024,0.03479,-0.0564575,0.0256348,0.0177002,0.0186157,0.0286865,0.0259399,0.0314331,0.0143433,-0.0195312,0.0222778,0.0323486
86,1,0.0335693,0.0238037,-0.0390625,0.00427246,0.0280762,0.0350952,0.0253296,0.0152588,0.0375366,0.0119019,-0.0335693,0.0170898,0.0363159
86,2,0.0335693,0.0402832,-0.0219727,0.0204468,0.0247192,0.0375366,0.0244141,0.00549316,0.0128174,0.000610352,-0.032959,0.0396729,0.0338745
86,3,0.032959,0.0213623,-0.0549316,0.0164795,0.03479,0.0292969,0.0161743,0.00457764,0.015564,-0.045166,-0.0256348,0.0418091,0.0393677
86,4,0.0259399,0.0259399,-0.0448608,0.022583,0.0305176,0.0344849,0.00305176,-0.000610352,0.0250244,0.00915527,-0.0311279,0.0369263,0.0439453
87,0,0.00701904,0.0195312,-0.0393677,-0.00427246,0.0210571,0.0149536,0.0360107,0.0146484,0.0344849,0.0149536,-0.0393677,0.0314331,0.0180054
87,1,0.0204468,0.0335693,-0.0430298,0.0265503,0.00701904,0.0350952,0.00732422,0.00640869,0.0326538,0.010376,-0.0256348,0.0570679,0.0375366
87,2,-0.000610352,0.0357056,-0.0421143,0.0241089,0.012207,0.0283813,0.0234985,0.0183105,0.00274658,0.00701904,-0.0360107,0.0274658,0.0268555
87,3,0.0320435,0.0595093,-0.0192261,0.0213623,-0.0238037,0.015564,0.0219727,0.017395,0.0152588,0.0134277,-0.0250244,0.0332642,0.0476074
87,4,0.0491333,0.0314331,-0.043335,0.0228882,0.0131226,0.0256348,0.000610352,0.0195312,0.0152588,0.045166,-0.00549316,0.0323486,0.0262451
88,0,0.0177002,0.0292969,-0.0366211,0.022583,0.0296021,0.00915527,0.050354,0.0100708,0.0268555,0.017395,-0.0415039,0.0427246,0.038147
88,1,0.022583,0.0192261,-0.0521851,0.0170898,0.0228882,0.055542,0.0238037,0.0186157,0.045166,0.0271606,-0.0198364,0.0308228,0.0460815
88,2,0.017395,0.0357056,-0.032959,0.00732422,0.0195312,0.0164795,0.00549316,0.0210571,0.017395,0.0292969,-0.0289917,0.039978,-0.012207
88,3,-0.0134277,0.0210571,-0.0332642,0.071106,0.0247192,0.0238037,-0.00213623,0.0088501,0.0286865,0.0195312,0.0088501,0.022583,0.0146484
88,4,0.0234985,0.0259399,-0.0326538,0.0259399,0.0259399,0.017395,0.00640869,0.0088501,-0.0109863,0.0119019,-0.0213623,0.0320435,0.0411987
89,0,0.000305176,0.0253296,-0.0204468,0.062561,0.00762939,0.0256348,0.0167847,0.0140381,0.0109863,0.012207,-0.017395,0.0390625,0.0244141
89,1,0.0344849,0.0271606,-0.0152588,0.0280762,0.0268555,0.0183105,-0.000305176,0.0756836,0.0213623,0.0164795,-0.0283813,0.0286865,0.0396729
89,2,0.0613403,0.0280762,0.0234985,-0.0219727,0.0244141,0.0247192,-0.0405884,0.0216675,0.0192261,0.0219727,-0.022583,0.0372314,0.0354004
89,3,0.0253296,0.0250244,0.0134277,0.0177002,0.00366211,0.022583,0.0204468,0.0344849,0.0164795,0.0189209,-0.0247192,0.0296021,0.0222778
89,4,0.0338745,0.020752,0.0570679,0.0216675,0.0244141,0.0808716,0.0140381,0.0119019,0.0167847,0.0408936,-0.0210571,0.0302124,0.0247192
90,0,0.0140381,0.0256348,0.0531006,-0.010376,0.0228882,-0.00823975,0.0280762,0.0164795,0.055542,0.0247192,-0.0131226,0.085144,0.0338745
90,1,0.0115967,0.0186157,0.0366211,0.0128174,0.0283813,0.0311279,0.0247192,0.0350952,0.0192261,0.0265503,-0.0408936,0.0210571,0.0167847
90,2,0.0250244,0.032959,0.0897217,0.0106812,0.0427246,0.0283813,0.0271606,0.00762939,0.00640869,0.00518799,-0.0259399,0.0314331,0.0439453
90,3,0.0262451,0.0335693,0.154114,0.0213623,0.0357056,0.0479126,0.010376,0.00427246,0.00762939,0.0253296,-0.0177002,0.0326538,0.0372314
90,4,0.012207,0.0253296,0.227661,0.0350952,0.0198364,0.062561,0.0167847,0.0332642,0.0134277,0.022583,-0.0250244,0.0286865,0.0485229
91,0,0.017395,0.0177002,0.136414,0.0177002,0.0271606,0.0375366,0.00854492,0.0219727,0.06073,0.0317383,-0.0222778,0.0793457,0.00549316
91,1,0.0247192,0.015564,0.144348,0.0289917,0.0402832,0.0350952,0.0219727,0.0183105,0.0222778,0.0189209,-0.0250244,0.0317383,0.0344849
91,2,0.0476074,0.0134277,0.108643,0.0439453,-0.0192261,0.0262451,0.0152588,0.00701904,0.0140381,0.0183105,-0.0192261,0.00946045,0.0320435
91,3,0.0210571,0.0100708,0.0933838,0.0799561,0.0317383,0.00946045,0.0280762,0.0213623,0.0143433,0.0170898,-0.0238037,0.00976562,0.0088501
91,4,0.0268555,0.0231934,0.0747681,0.0234985,0.00946045,0.0378418,0.015564,0.043335,0.00946045,0.017395,0.000610352,0.0253296,0.032959
92,0,-0.00213623,0.0219727,0.00518799,0.038147,0.0393677,0.0857544,0.0405884,0.0106812,0.0234985,0.0219727,-0.027771,0.00549316,0.0259399
92,1,0.0320435,-0.00976562,0.0247192,0.0140381,0.0259399,0.0335693,0.0177002,0.0396729,0.0088501,0.0140381,-0.0332642,0.015564,0.0427246
92,2,0.0115967,0.010376,0.0363159,0.0314331,0.0201416,0.0296021,0.0152588,0.0323486,0.0140381,0.00823975,-0.0332642,0.032959,0.0344849
92,3,0.0204468,0.0170898,-0.0616455,0.0286865,0.027771,0.0790405,0.00610352,0.0231934,0.0143433,0.0115967,-0.0228882,0.0167847,0.0335693
92,4,0.0195312,0.0140381,-0.0387573,0.0180054,0.0167847,-0.00274658,0.0283813,0.0308228,0.0164795,0.0134277,-0.0387573,0.0308228,0.0317383
93,0,0.0244141,0.0350952,-0.022583,0.00854492,-0.0189209,0.0323486,0.0238037,0.065918,0.0167847,0.00823975,-0.027771,0.0299072,0.0234985
93,1,0.0228882,0.0164795,-0.0115967,-0.00183105,0.0421143,0.0357056,0.0100708,0.010376,0.00976562,0.0460815,-0.0274658,0.0219727,-0.0183105
93,2,0.0405884,0.0302124,-0.0238037,-0.00427246,0.0326538,0.00701904,0.0228882,0.015564,0.010376,0.0170898,-0.0186157,0.0268555,0.0317383
93,3,0.0112915,0.0350952,0.0387573,0.00854492,0.0326538,0.0375366,0.0228882,0.039978,0.0164795,0.032959,-0.020752,0.0198364,0.017395
93,4,0.0131226,0.0335693,0.0274658,0.012207,0.0268555,0.0588989,0.0262451,0.0219727,0.00366211,0.0244141,-0.0311279,-0.00244141,0.0366211
94,0,0.0244141,0.0341797,0.0872803,0.0119019,0.0335693,0.0152588,0.0195312,0.0213623,0.0247192,0.00732422,-0.0180054,-0.0231934,0.0283813
94,1,0.0238037,-0.000915527,0.0799561,0.0222778,-0.00488281,0.0332642,0.032959,0.0369263,0.00274658,0.0259399,-0.0289917,0.0119019,0.0158691
94,2,0.0177002,0.027771,0.0933838,0.0189209,0.0189209,0.017395,0.0338745,0.0289917,0.027771,0.00396729,-0.0158691,-0.0265503,-0.00213623
94,3,0.0289917,0.0323486,0.155334,0.0289917,0.0198364,0.0247192,0.017395,0.0216675,0.027771,0.0216675,-0.0231934,0.032959,0.0326538
94,4,-0.0128174,0.0292969,0.146484,0.0338745,0.0238037,0.0402832,0.0332642,0.0149536,0.0180054,0.00396729,-0.00762939,0.0247192,0.0250244
95,0,0.0164795,0.0244141,0.123291,0.0253296,0.0244141,0.0289917,0.0231934,0.0167847,0.0228882,-0.00701904,-0.0296021,0.0213623,0.00640869
95,1,0.0302124,-0.0198364,0.144653,0.0296021,-0.0186157,0.0286865,0.0161743,-0.00946045,0.0262451,0.0137329,-0.0177002,0.0241089,0.0219727
95,2,0.0296021,0.017395,0.137634,0.0540161,0.0344849,0.0350952,0.0189209,0.0415039,0.0286865,0.0170898,-0.0292969,0.0234985,0.0286865
95,3,0.0671387,0.0274658,0.125732,0.0595093,0.0241089,0.0384521,-0.0259399,0.0213623,0.00305176,-0.00457764,-0.0167847,0.0119019,0.0271606
95,4,0.015564,0.012207,0.136719,0.03479,0.0445557,0.0360107,0.0253296,0.0143433,0.0198364,0.0366211,-0.0152588,0.00854492,0.00183105
96,0,0.0253296,0.0302124,0.13031,0.0259399,0.0213623,0.0357056,-0.0115967,0.012207,0.00396729,0.045166,-0.0167847,0.0253296,0.0253296
96,1,0.0125122,0.00488281,0.116272,0.0296021,0.038147,-0.000915527,0.0387573,0.0164795,0.00610352,0.0134277,-0.0296021,0.0112915,0.0137329
96,2,0.0109863,0.0280762,0.12207,0.0143433,0.0198364,0.032959,0.0280762,0.0222778,0.0201416,0.0656128,-0.0198364,0.0234985,0.0140381
96,3,0.0115967,0.0152588,0.127869,0.0296021,0.0259399,0.0375366,0.0396729,0.0259399,0.000305176,0.00457764,-0.0491333,0.0204468,0.0393677
96,4,0.0115967,0.0106812,0.111084,0.0271606,0.0177002,0.0366211,0.0317383,0.039978,0.0219727,0,-0.0286865,0.0695801,0.0228882
97,0,0.0183105,0.0177002,0.102539,0.022583,0.039978,0.032959,0.0360107,0.0262451,0.017395,0.0164795,-0.038147,0.0167847,0.0222778
97,1,-0.0180054,0.0308228,0.108032,0.0723267,0.0283813,0.0296021,-0.0402832,0.0128174,0.00488281,0.0784302,-0.0167847,0.0167847,0.00335693
97,2,0.0201416,0.0238037,0.169373,0.0390625,0.0299072,-0.0161743,0.0384521,0.0259399,0.015564,0.0158691,-0.0292969,0.0146484,0.0268555
97,3,0.00671387,0.0231934,0.110168,0.0195312,0.0289917,0.017395,0.0897217,0.00152588,0.0219727,0.0210571,-0.010376,0.0109863,0.0250244
97,4,0.0302124,0.0161743,0.106506,0.0286865,0.0192261,0.045166,0.0314331,0.0213623,0.017395,0.0296021,-0.0262451,0.0491333,0.0149536
98,0,0.0234985,0.0326538,0.098877,0.0387573,0.00946045,0.0341797,0.0384521,0.00518799,0.0137329,0.0186157,-0.0231934,0.0396729,0.0146484
98,1,0.0250244,0.0146484,0.0958252,0.0231934,0.00518799,0.038147,0.0283813,0.0311279,0.00762939,0.0106812,-0.0109863,0.00640869,0.0170898
98,2,0.0259399,0.0354004,0.105896,0.0314331,0.0354004,0.0216675,0.0268555,-0.0283813,0.0146484,0.0106812,-0.0598145,0.0112915,0.0387573
98,3,0.0164795,0.0738525,0.101929,0.0262451,0.0933838,0.0189209,0.0271606,0.0479126,0.0109863,0.0131226,-0.0238037,0.0177002,0.0183105
98,4,0.0445557,0.0216675,0.10437,0.0463867,0.0466919,0.0402832,0.0323486,0.0262451,0.0198364,0.0253296,-0.0262451,0.0125122,0.0198364
99,0,0.0341797,0.0192261,0.0778198,0.0308228,0.039978,0.0421143,-0.0299072,0.0219727,0.0152588,0.00305176,-0.0213623,0.0180054,0.022583
99,1,0.015564,-0.0161743,0.0653076,0.0857544,0.0286865,0.0396729,0.0253296,0.0332642,0.0137329,0.0198364,-0.0256348,0.0384521,0.0119019
99,2,-0.0485229,0.017395,0.0552368,0.0915527,0.0396729,0.03479,0.0238037,0.0256348,0.0119019,0.0201416,-0.0204468,0.0134277,0.0112915
99,3,0.0088501,0.00549316,0.0488281,0.0741577,0.0366211,0.0234985,0.0115967,0.0283813,0.0115967,-0.00946045,-0.0241089,0.0146484,-0.00762939
99,4,0.0128174,0.0140381,0.0308228,0.0970459,0.0317383,0.0402832,0.0274658,0.0164795,0.0216675,0.0238037,-0.0256348,0.0299072,0.0296021
100,0,0.0430298,0.0216675,-0.0753784,0.0848389,0.0393677,-0.00762939,0.0350952,0.0231934,0.0216675,0.0241089,-0.0393677,0.00976562,0.0134277
100,1,0.0274658,0.0238037,-0.0457764,0.088501,0.0375366,0.0402832,0.0341797,0.0271606,0.0164795,0.017395,-0.0100708,0.0274658,0.00915527
100,2,0.0692749,0.00366211,-0.0390625,0.0759888,0.03479,0.0372314,0.0384521,0.0250244,0.0180054,0.0247192,-0.0408936,0.0308228,0.017395
100,3,0.0350952,0.0100708,-0.109558,0.0613403,0.0366211,0.0146484,0.0302124,0.0280762,0.0469971,0.00701904,-0.0167847,0.0363159,0.0210571
100,4,0.0299072,0.0125122,-0.0796509,0.0405884,0.0332642,0.0610352,0.0344849,0.0283813,0.0222778,0.0167847,-0.027771,0.0131226,0.0265503
101,0,0.0204468,0.0241089,-0.0805664,0.0509644,0.0372314,0.0268555,0.020752,-0.00854492,0.0228882,0.0262451,0.022583,0.0170898,0.0012207
101,1,0.0292969,0.00701904,-0.0701904,0.0442505,0.0292969,0.0247192,0.0213623,0.0292969,0.0289917,0.0088501,-0.0189209,0.00640869,0.0198364
101,2,0.0274658,0.0180054,-0.126953,0.0494385,0.027771,0.0570679,0.0292969,0.0250244,0.022583,0.0296021,-0.0216675,0.0448608,0.0152588
101,3,0.0338745,0.0283813,-0.0390625,0.0424194,0.0259399,0.0302124,0.0372314,0.0201416,0.0274658,0.0216675,-0.00946045,0.0814819,0.0262451
101,4,0.027771,0.0201416,-0.0131226,0.0259399,0.0369263,0.0167847,0.0250244,0.0366211,0.0259399,0.0253296,-0.0119019,0.0137329,-0.00518799
102,0,0.0210571,0.0280762,0.0262451,0.0469971,0.0286865,0.0299072,0.0280762,0.0408936,-0.00610352,0.0369263,-0.0134277,0.00274658,0.0195312
102,1,0.0274658,0.0149536,0.00305176,0.0387573,0.0357056,0.0320435,0.0369263,0.038147,0.0311279,0.00915527,-0.0128174,0.0198364,-0.00396729
102,2,0.0494385,0.0265503,-0.00305176,0.00915527,0.0415039,0.0439453,0.0238037,0.0268555,0.0204468,0.0387573,-0.017395,0.00518799,0.0219727
102,3,0.0378418,0.0286865,0.0646973,0.020752,0.0305176,0.0338745,0.0442505,0.0387573,0.0115967,0.0314331,-0.027771,0.0234985,0.00946045
102,4,0.00213623,0.0149536,0.106201,0.0421143,0.0241089,0.0283813,0.0286865,0.0186157,0.00915527,0.0302124,-0.0140381,0.0112915,0.0259399
103,0,0.0228882,0.0308228,0.106506,0.0360107,0.0308228,0.0320435,0.0265503,0.0320435,0.0302124,0.0357056,-0.0213623,0.0216675,0.0088501
103,1,0.027771,0.0143433,0.124512,0.0204468,0.0274658,0.0848389,0.0286865,0.0302124,0.0292969,0.0350952,-0.0210571,0,0.00976562
103,2,0.0170898,0.0170898,0.0897217,0.0314331,-0.0274658,0.0427246,0.0372314,0.065918,0.0289917,0.0344849,0.00823975,0.0100708,0.0241089
103,3,0.022583,0.0119019,0.0653076,0.00335693,0.0384521,0.0390625,0.0302124,0.0317383,0.0244141,0.0289917,-0.0189209,0.017395,0.0186157
103,4,0.0219727,-0.00640869,0.00762939,0.0265503,0.045166,0.0344849,0.0390625,0.0460815,0.0167847,0.0213623,-0.015564,0.0183105,0.0180054
104,0,0.0408936,0.0198364,-0.0183105,0.0109863,0.0448608,0.0332642,0.0262451,0.0192261,0.0344849,0.0289917,-0.0247192,0.00640869,0.0137329
104,1,0.00366211,0.0146484,-0.00244141,0.0183105,0.0152588,0.0228882,0.0268555,0.0250244,0.020752,0.03479,-0.0296021,0.00396729,0.0140381
104,2,0.0302124,0.0262451,-0.00396729,0.0143433,0.0366211,0.0283813,0.0439453,0.0274658,0.0335693,0.0311279,-0.000610352,0.0396729,0.0234985
104,3,0.0268555,0.0204468,-0.00915527,0.010376,0.0384521,0.0286865,0.0253296,0.0372314,0.0341797,0.0265503,-0.0274658,0.00335693,0.0265503
104,4,0.0167847,-0.0497437,-0.106201,0.00183105,0.0326538,0.0396729,0.0366211,0.071106,0.0540161,0.0488281,-0.0326538,0.015564,0.0350952
105,0,0.0213623,0.0152588,-0.0686646,0.0128174,0.0286865,0.0228882,0.0259399,0.0115967,0.012207,0.0372314,-0.0222778,0.00946045,-0.00579834
105,1,0.0012207,0.00396729,-0.0692749,0.0088501,0.0354004,0.0411987,0.067749,0.0338745,0.00793457,0.0537109,-0.0152588,0.00732422,0.0167847
105,2,0.00549316,0.0265503,-0.0839233,0.00549316,0.0296021,0.0405884,0.0473022,0.0289917,0.0448608,0.0411987,-0.00762939,-0.00854492,-0.00946045
105,3,0.0109863,0.00335693,-0.0634766,-0.00518799,-0.0189209,0.0161743,0.0317383,0.0857544,0.0286865,0.0302124,-0.0119019,0.0164795,0.0146484
105,4,0.0253296,0.0177002,-0.0161743,-0.00579834,-0.00610352,0.0311279,0.0415039,0.0692749,0.0189209,0.0350952,0.000915527,0.0192261,0.032959
106,0,0.0192261,0.015564,0.0234985,0.00366211,0.0271606,0.0454712,0.0402832,0.0231934,0.00488281,0.0421143,-0.0161743,0.00427246,-0.00946045
106,1,0.0192261,0.0210571,0.010376,-0.00488281,0.0222778,0.032959,0.010376,0.0469971,0.0180054,0.0939941,-0.0262451,0.0241089,-0.0488281
106,2,0.0125122,0.00762939,-0.00183105,-0.00305176,0.0213623,0.0250244,0.0305176,0.0326538,0.00946045,0.010376,-0.0189209,0.00335693,0.027771
106,3,0.0119019,-0.00457764,0.0421143,-0.00579834,0.0213623,0.0271606,0.0363159,0.0411987,0.0259399,0.0268555,-0.00762939,0.0271606,-0.0552368
106,4,0.0106812,0.0125122,0.102234,-0.00762939,0.0170898,0.0335693,0.0900269,0.0421143,0.0250244,0.00762939,-0.015564,0.0268555,0.0146484
107,0,0.0167847,0.00671387,0.0570679,-0.00823975,0.0305176,0.0234985,0.0137329,0.0396729,0.0231934,0.0106812,-0.0292969,0.0219727,0.0201416
107,1,0.0354004,0.0250244,0.072937,0.0140381,0.0262451,0.0408936,0.0259399,0.0244141,0.0268555,0.0469971,-0.0143433,0.0241089,0.00457764
107,2,-0.000305176,0.0131226,0.0686646,-0.0170898,0.020752,0.0305176,0.0430298,0.0292969,0.0234985,0.0387573,-0.0192261,0.0274658,0.0115967
107,3,0.0152588,0.0140381,0.0500488,0.00946045,0.0180054,0.00854492,0.038147,0.0466919,0.0372314,0.0357056,-0.0271606,0.0125122,0.00457764
107,4,0.0308228,-0.00671387,0.0396729,0.00152588,0.0286865,0.103149,0.0366211,0.0430298,0.0741577,0.0180054,-0.0326538,0.0436401,0.0296021
108,0,0.0323486,0.00518799,-0.0421143,0.000610352,0.0341797,0.027771,0.0317383,0.0357056,0.0234985,0.0485229,-0.0305176,0.0146484,0.0189209
108,1,0.0268555,0.0106812,0.0100708,-0.000610352,0.050354,0.0213623,0.0286865,-0.0112915,0.0210571,0.0341797,-0.0180054,0.0201416,0.00152588
108,2,0.0393677,0.00915527,-0.0115967,0.010376,0.0613403,0.00854492,0.0320435,0.0326538,0.0372314,0.03479,-0.0289917,0.0180054,0.010376
108,3,0.0314331,0.022583,-0.0683594,0.00701904,0.0830078,0.0338745,0.0408936,-0.010376,0.0292969,0.0234985,-0.0189209,0.0088501,0.00274658
108,4,0.0201416,0.00854492,-0.0558472,0.010376,0.0219727,0.0234985,0.0259399,0.0357056,0.0161743,0.0387573,-0.0189209,0.0109863,0.0131226
109,0,0.0482178,0.0183105,-0.0512695,0.00152588,0.0189209,0.0170898,0.0259399,0.0308228,0.0231934,0.038147,-0.0543213,0.0170898,0.0216675
109,1,0.0115967,0.00610352,-0.0167847,-0.000610352,0.0219727,0.0115967,0.0473022,0.0384521,0.0177002,0.0387573,-0.0183105,0.010376,-0.0125122
109,2,0.0244141,0.0289917,-0.0549316,0.00549316,0.0115967,0.0198364,0.0842285,0.0421143,0.0421143,0.0369263,-0.0262451,0.0143433,0.0170898
109,3,0.0238037,0.00549316,-0.0360107,0.0170898,0.0186157,-0.0390625,0.0299072,0.0427246,0.101318,0.0335693,-0.0271606,-0.0506592,0.0170898
109,4,0.0396729,0.0213623,-0.0531006,0.0140381,0.0210571,0.0247192,0.0216675,0.0366211,0.0219727,0.00366211,-0.0665283,0.0143433,0.0177002
110,0,0.0183105,0.00671387,-0.0424194,0.0106812,0.0289917,0.0238037,0.0296021,0.0320435,0.0405884,0.0308228,-0.0265503,0.0195312,0.00671387
110,1,0.0378418,0.0280762,0.0250244,-0.0152588,0.0265503,0.0125122,0.0292969,0.0363159,0.0357056,0.0308228,-0.0408936,0.0180054,0.00610352
110,2,0.0259399,0.015564,0.0558472,0.00610352,0.015564,0.0576782,0.0350952,0.0378418,-0.0152588,0.0476074,-0.0250244,0.0134277,-0.00457764
110,3,0.0317383,0.00335693,0.0787354,0,0.0421143,0.0192261,0.0204468,0.0317383,0.0375366,0.0460815,-0.0186157,0.0320435,0.00396729
110,4,0.0216675,0.0128174,0.0939941,-0.00396729,0.0274658,-0.0216675,0.0286865,0.0387573,0.0650024,0.0402832,-0.0250244,0.0109863,0.0250244
111,0,0.0222778,0.0137329,0.133972,0.000610352,0.0195312,0.038147,0.0344849,0.0393677,0.0299072,0.0476074,-0.0216675,0.00762939,-0.0653076
111,1,0.0253296,0.032959,0.09552,0.00579834,0.0128174,0.0415039,0.0262451,0.0311279,0.0942993,0.038147,-0.0262451,0.0311279,0.0186157
111,2,0.0177002,0.0149536,0.0588989,0.027771,0.0143433,0.0167847,0.038147,0.0231934,0.0210571,0.0387573,-0.0198364,0.0112915,0.022583
111,3,0.0192261,0.00610352,0.045166,0.012207,-0.0119019,0.0222778,0.0363159,-0.0241089,0.032959,0.03479,-0.0167847,0.0228882,0.0253296
111,4,0.0231934,0.00488281,0.0720215,0.0149536,0.0244141,0.0149536,0.0228882,0.0344849,0.0274658,0.0405884,-0.0283813,0.0106812,0.0137329
112,0,0.00976562,0.0634766,0.0476074,0.0247192,0.0210571,0.0292969,0.0234985,0.0372314,0.0430298,0.032959,-0.0189209,0.0164795,0.00579834
112,1,0.0302124,0.00976562,0.0546265,0.0219727,0.00183105,0.0280762,0.0204468,0.0286865,0.0283813,0.0375366,-0.0320435,0.0213623,0.0247192
112,2,0.00396729,0.0134277,0.0518799,0.00305176,0.00579834,0.0210571,-0.0299072,0.0378418,0.0271606,0.032959,-0.0302124,0.0323486,0.012207
112,3,0.00854492,0.0238037,0.0466919,0.0106812,0.0088501,0.0186157,0.0213623,0.0900269,0.0344849,0.0296021,-0.0161743,0.0234985,0.0183105
112,4,-0.0140381,0.00793457,0.0778198,0.0192261,0.0131226,0.0259399,0.0219727,0.0375366,0.0360107,0.0509644,-0.0289917,0.020752,-0.00366211
113,0,0.0213623,-0.0143433,0.0491333,0.0125122,0.0140381,0.0192261,0.0265503,0.0372314,0.0326538,0.0265503,-0.0256348,0.0201416,0.0119019
113,1,0.0253296,0.015564,0.0543213,-0.017395,0.0201416,0.0210571,0.0222778,0.0396729,0.0308228,0.032959,-0.0326538,0.0198364,-0.0286865
113,2,0.0222778,0.00854492,0.050354,0.0158691,0.010376,0.00549316,0.0244141,0.0500488,0.0183105,0.0274658,-0.0357056,0.0238037,-0.00854492
113,3,0.0262451,0.017395,0.0595093,0.0012207,0.0012207,0.0192261,0.0244141,0.0421143,0.0280762,0.00701904,-0.0357056,0.0149536,0.0256348
113,4,0.0161743,0.0540161,0.057373,0.0128174,0.0259399,0.015564,0.0378418,-0.00396729,0.0375366,0.0201416,-0.0332642,0.0262451,0.0177002
114,0,0.00762939,0.0161743,0.0622559,0.0335693,0.00701904,-0.00396729,0.0234985,0.0320435,0.0378418,0.0262451,-0.0253296,0.0119019,0.00183105
114,1,0.010376,0.0259399,0.0454712,0.0164795,0.0137329,0.022583,0.0183105,0.0241089,0.0247192,0.0628662,-0.0314331,0.0360107,0.0286865
114,2,0.0112915,0.0234985,0.0115967,-0.0128174,0.0302124,0.0140381,0.0256348,0.0775146,0.0430298,0.0299072,-0.0787354,0.0280762,0.0244141
114,3,0.0289917,0.0250244,0.0250244,-0.0210571,0.0338745,0.0210571,0.0167847,0.0344849,0.0323486,0.0280762,-0.0216675,0.0158691,0.0302124
114,4,0.0436401,0.0146484,0.0762939,-0.00366211,0.0183105,-0.00335693,0.0292969,0.0292969,0.0421143,0.0344849,-0.0424194,0.0195312,0.0228882
115,0,0.0222778,-0.0344849,0.09552,-0.00213623,0.0183105,0.0134277,0.0204468,0.0131226,0.0396729,0.0350952,-0.0280762,0.0198364,0.012207
115,1,0.0299072,0.0186157,0.0756836,0.00915527,0.015564,0.0494385,0.0167847,0.0302124,0.043335,0.0308228,-0.0292969,0.0228882,0.0170898
115,2,0.0189209,-0.0219727,0.0460815,0.0183105,-0.0311279,0.0289917,0.0268555,0.0506592,0.00701904,0.0280762,-0.0247192,0.0402832,0.0241089
115,3,0.0323486,0.0317383,0.0537109,0.010376,0.0253296,0.0299072,0.0164795,0.0421143,0.0402832,0.0341797,-0.00671387,0.0286865,0.020752
115,4,0.0942993,0.0198364,0.0332642,-0.0234985,0.0143433,0.0204468,0.00732422,0.0213623,0.0326538,0.0494385,-0.0283813,0.0186157,0.00701904
116,0,0.039978,0.0170898,0,0.00793457,0.017395,0.0183105,0.0698853,0.0436401,0.0302124,0.0424194,-0.0369263,0.0292969,0.0186157
116,1,0.0308228,0.0216675,-0.00366211,0.0143433,0.0112915,0.0302124,0.0250244,0.0289917,0.0402832,0.0216675,-0.0363159,0.0186157,0.0195312
116,2,0.0393677,0.0262451,-0.0292969,0.0134277,0.027771,0.0317383,-0.00488281,-0.00274658,0.0296021,0.0402832,-0.0372314,0.0271606,0.0231934
116,3,0.0271606,0.0299072,-0.027771,0.010376,0.0186157,0.0143433,0.0360107,0.0140381,0.0518799,0.0369263,-0.0384521,0.0192261,0.0375366
116,4,-0.00701904,0.0262451,-0.078125,-0.0286865,0.0192261,0.0189209,0.0283813,0.0436401,0.0311279,0.0292969,-0.0424194,0.0241089,0.0253296
117,0,0.0454712,0.0262451,-0.0839233,0.00335693,0.0167847,0.0131226,0.022583,0.0192261,0.0387573,0.0357056,-0.0463867,0.0292969,0.0616455
117,1,0.0314331,0.0317383,-0.0720215,0.00244141,0.0134277,0.0149536,0.017395,0.0149536,0.00854492,0.00213623,-0.027771,0.0274658,0.0228882
117,2,0.0244141,0.0341797,-0.065918,-0.00183105,-0.0143433,0.0241089,0.0216675,0.0292969,-0.00305176,0.00518799,-0.0390625,-0.0302124,0.0198364
117,3,0.0271606,0.0299072,-0.0387573,-0.00610352,0.0231934,0.0231934,0.0186157,0.020752,0.0195312,0.00946045,-0.0350952,0.0341797,0.0228882
117,4,0.0411987,0.0344849,-0.0418091,-0.00213623,0.0259399,0.043335,0.0192261,0.0149536,0.0393677,0.015564,-0.0189209,-0.0320435,0.0219727
118,0,0.0616455,0.0411987,0.00823975,0.065918,0.0201416,0.0231934,-0.0271606,0.0192261,0.0195312,0.0570679,-0.0198364,0.0244141,0.0479126
118,1,0.0219727,0.027771,0.0210571,0.00732422,0.0115967,0.017395,0.0238037,0.0192261,0.0201416,0.0146484,-0.0256348,0.0357056,0.0195312
118,2,0.0375366,0.0341797,0.0274658,-0.00427246,0.0192261,0.010376,0.0280762,0.0152588,0.0259399,0.0201416,-0.0360107,0.0216675,0.00976562
118,3,0.0119019,0.0210571,0.0411987,0.0302124,-0.00732422,0.0198364,0.0170898,0.039978,0.03479,0.0253296,-0.0177002,0.0289917,0.0299072
118,4,-0.00946045,0.0396729,0.112305,0.0350952,0.015564,0.0210571,0.012207,0.017395,0.0363159,0.0204468,-0.0726318,0.0247192,0.00946045
119,0,0.0366211,0.0338745,0.0964355,0.0268555,0.0289917,0.0115967,0.0222778,0.0177002,0.0268555,-0.00305176,-0.0228882,0.0442505,0.0341797
119,1,0.0299072,0.0143433,0.0805664,0.0186157,0.0234985,0.0241089,0.0204468,-0.027771,0.0256348,0.00549316,-0.0128174,0.0228882,0.0357056
119,2,0.0234985,0.00671387,0.0695801,0.00915527,0.0234985,0.0384521,0.0366211,0.0180054,0.00854492,0.0250244,-0.0231934,0.0442505,0.0305176
119,3,-0.00579834,0.0247192,0.0588989,0.0613403,0.0140381,0.0228882,0.0686646,0.0280762,0.0354004,0.00488281,-0.0286865,0.022583,0.0201416
119,4,0.0408936,0.027771,0.0656128,0.0335693,0.0238037,0.0289917,0.0189209,0.0393677,0.0350952,0.00488281,-0.0457764,0.0234985,0.0268555
120,0,0.0323486,0.0167847,0.0131226,0.0149536,0.0192261,0.0186157,0.0146484,0.020752,0.0305176,0.0427246,-0.0317383,0.0271606,0.0775146
120,1,0.0335693,0.0283813,0.0360107,0.00946045,0.0186157,0.0195312,0.0427246,0.0262451,0.03479,0.0177002,-0.0314331,0.00854492,0.0640869
120,2,0.0390625,0.0250244,0.0088501,0.0344849,0.0296021,0.0170898,0.0158691,0.0265503,0.0274658,-0.0106812,-0.0299072,0.0308228,-0.0390625
120,3,0.0619507,0.0283813,-0.0384521,0.0460815,0.0201416,0.0198364,0.0256348,0.0140381,0.0247192,-0.00488281,-0.0622559,0.0253296,-0.0369263
120,4,0.0280762,0.0222778,-0.0561523,0.00915527,0.0125122,0.00152588,0.012207,0.020752,0.0393677,0.012207,-0.0344849,0.00732422,0.0177002
121,0,0.0244141,0.022583,-0.0680542,-0.00396729,0.012207,0.0125122,-0.0375366,0.00762939,0.0234985,0.0186157,-0.0302124,0.0189209,0.0250244
121,1,0.0308228,0.0338745,-0.0292969,0.0192261,0.0238037,-0.0384521,0.0183105,0.0198364,-0.00488281,0.0308228,-0.027771,0.0268555,0.0302124
121,2,0.0299072,0.0445557,-0.0308228,0.0125122,0.0244141,0.0109863,0.0210571,0.017395,0.0354004,0.03479,-0.0289917,0.0250244,0.0259399
121,3,0.0286865,0.0320435,-0.0128174,0.0189209,0.0701904,0.0131226,0.00976562,0.0894165,0.0146484,0.0296021,-0.0341797,0.0366211,0.0408936
121,4,0.0238037,0.0415039,-0.038147,0.00427246,0.0268555,0.0198364,0.00701904,-0.0177002,0.0323486,0.0326538,-0.0445557,0.0421143,0.0445557
122,0,0.0405884,0.0158691,0.00518799,0.0100708,0.0628662,0.00701904,0.0137329,0.0878906,0.00244141,0.0296021,-0.0296021,0.0408936,0.0317383
122,1,0.0411987,0.0271606,0.0338745,-0.00732422,0.00579834,-0.0518799,0.0439453,0.0161743,0.0259399,0.039978,-0.0247192,0.0601196,0.0305176
122,2,0.0320435,0.0131226,0.0469971,0.022583,0.0265503,-0.00579834,0.0134277,0.0265503,0.0308228,0.0323486,-0.027771,0.0387573,0.0323486
122,3,0.0369263,0.0259399,0.0814819,0.0146484,0.0219727,0.0146484,0.017395,0.00396729,-0.0357056,0.0256348,-0.0213623,0.0357056,0.0540161
122,4,0.0448608,0.0286865,0.130615,0.015564,0.0341797,0.0109863,-0.00213623,0.0170898,0.0231934,0.00427246,-0.0393677,0.032959,0.0747681
123,0,0.0317383,0.00946045,0.135803,0.0332642,0.0146484,0.0143433,0.00793457,0.0189209,0.00366211,0.03479,-0.0411987,0.0271606,0.0344849
123,1,0.0463867,0.0286865,0.106506,0.012207,0.0424194,0.00579834,0.0140381,0.0259399,0.0189209,0.0274658,-0.043335,0.022583,0.0338745
123,2,0.0405884,0.0274658,0.110474,0.0344849,0.0244141,0.00488281,0.0283813,0.0158691,0.0485229,0.0256348,-0.0262451,0.0177002,0.03479
123,3,0.0326538,0.00976562,0.0854492,0.0323486,0.0228882,0.00854492,0.0140381,0.0576782,0.010376,0.0280762,-0.0579834,0.0299072,0.03479
123,4,0.0308228,0.0259399,0.0985718,0.0387573,0.0253296,0.020752,-0.0128174,0.0152588,0.0119019,0.0338745,-0.0247192,0.0344849,0.027771
124,0,0.0366211,-0.012207,0.0506592,0.0488281,-0.00701904,0.0335693,0.015564,0.0283813,0.0305176,0.0250244,-0.0289917,0.0134277,0.0418091
124,1,0.0357056,0.0341797,0.0497437,0.0439453,0.0100708,0.0253296,0.0167847,0.022583,0.0146484,0.0390625,-0.0198364,-0.0250244,0.0469971
124,2,0.03479,0.0204468,0.027771,0.050354,0.0228882,0.0216675,0.00762939,0.0128174,0.0643921,0.0164795,-0.0360107,0.0308228,0.0576782
124,3,0.0396729,0.0518799,0.057373,0.0292969,0.03479,-0.0341797,0.00549316,0.0219727,0.00244141,0.0296021,-0.0390625,-0.0308228,0.0311279
124,4,0.0115967,0.0268555,0.0320435,0.0280762,0.017395,-0.0119019,0.0286865,0.0170898,0.00823975,0.0396729,-0.0265503,0.0512695,0.0384521
125,0,0.0418091,0.0289917,0.0488281,0.0317383,0.0186157,-0.00793457,0.0106812,-0.0305176,0.0204468,0.0308228,-0.0439453,0.0341797,0.032959
125,1,0.0357056,0.0268555,0.0604248,0.0439453,0.00305176,0.020752,0.00274658,-0.00244141,0.0238037,-0.0146484,-0.0189209,0.0262451,0.0296021
125,2,0.0460815,0.0415039,0.0405884,0.0482178,0.0396729,0.0268555,0.00488281,0.0158691,0.0131226,0.0164795,-0.0189209,0.0335693,0.0509644
125,3,-0.00549316,0.0234985,-0.0192261,0.0198364,0.0308228,0.0106812,0.00274658,0.0262451,0.00640869,-0.00640869,-0.0610352,0.0271606,-0.00915527
125,4,0.102844,0.0335693,-0.0167847,0.0820923,0.0161743,0.0143433,0.0265503,0.0158691,0.0238037,0.0375366,-0.0256348,0.0219727,0.0323486
126,0,0.0366211,0.0213623,0.00244141,-0.0186157,0.0137329,0.0088501,0.0170898,0.0222778,0.0265503,0.0299072,-0.0271606,0.0415039,0.0442505
126,1,0.0619507,0.00427246,-0.00427246,0.00274658,0.00518799,0.00946045,0.0106812,0.0158691,0.00732422,0.032959,-0.0332642,0.0289917,0.0253296
126,2,0.038147,-0.00793457,0.0192261,0.071106,0.0765991,0.0332642,0.0180054,0.0793457,0.0299072,0.0234985,-0.0350952,0.0253296,0.0314331
126,3,0.0469971,0.0338745,0.0595093,0.0686646,0.00305176,0.0183105,0.017395,0.0100708,0.0289917,0.083313,-0.0320435,0.0170898,0.0747681
126,4,0.0405884,-0.0195312,0.0915527,0.0595093,0.0686646,0.00915527,0.0131226,0.0436401,0.0192261,0.0195312,-0.0384521,0.0393677,0.0344849
127,0,0.0350952,0.0369263,0.103455,0.0415039,0.0106812,0.0588989,0.0326538,0.0112915,-0.0265503,0.0259399,-0.0378418,0.0109863,0.0299072
127,1,0.0341797,0.0564575,0.0769043,0.0524902,0.0222778,0.0192261,0.00671387,0.00671387,0.0524902,0.0143433,-0.0341797,0.0231934,0.0253296
127,2,0.0231934,0.0393677,0.0579834,0.072937,0.0222778,0.0137329,-0.00366211,-0.0100708,0.0256348,0.0317383,-0.0299072,0.0418091,0.0195312
127,3,0.0201416,0.0253296,0.0531006,0.0531006,0.0228882,0.0170898,-0.00823975,0.0128174,0.0256348,0.0177002,-0.0234985,0.0296021,0.00152588
127,4,0.0784302,0.0326538,0.0427246,0.00213623,0.0222778,0.00366211,0.0259399,0.0146484,-0.00244141,0.0228882,-0.0253296,0.0201416,0.0341797
128,0,0.00549316,0.0302124,0.010376,0.0631714,0.00823975,0.0314331,0.0192261,0.00732422,0.0180054,0.0164795,-0.0134277,0.0119019,0.0231934
128,1,0.0338745,0.0241089,-0.0363159,0.106201,0.0164795,0.0100708,0.0311279,0.00854492,0.0216675,-0.0497437,-0.0448608,0.012207,0.0283813
128,2,0.0302124,-0.00518799,-0.0363159,0.0540161,-0.0448608,0.0195312,0.0161743,0.0311279,0.0216675,0.0302124,-0.032959,0.0317383,0.0201416
128,3,0.0289917,0.072937,-0.0286865,0.045166,0.0344849,0.010376,0.027771,0.0115967,0.0317383,0.0158691,-0.0317383,0.0265503,0.0375366
128,4,0.0299072,-0.0012207,-0.0292969,0.0653076,0.020752,0.000305176,0.00518799,-0.0311279,0.0204468,0.0238037,-0.0274658,0.0244141,0.0476074
129,0,0.032959,0.0540161,-0.0149536,0.0531006,0.022583,0.00610352,0.0137329,0.0241089,0.0228882,0.027771,-0.0262451,0.0323486,0.0415039
129,1,0.0268555,0.0180054,-0.0161743,0.134583,0.0170898,0.00549316,0.0189209,0.0106812,0.0134277,0.0201416,-0.0289917,0.0283813,0.0350952
129,2,0.0201416,0.0259399,-0.0088501,0.0585938,0.0271606,0.0360107,0.0140381,0.0186157,0.0222778,0.0259399,-0.0302124,0.0238037,0.0244141
129,3,0.050354,0.0317383,-0.0088501,0.0570679,0.0274658,0.0177002,0.0128174,0.00610352,0.0131226,0.0265503,-0.0210571,0.0244141,0.0354004
129,4,0.022583,0.0280762,0.00762939,0.0286865,0.0146484,0.0531006,0.0186157,0.0177002,0.0564575,0.0222778,-0.0289917,0.0552368,0.0585938
130,0,0.0180054,0.0479126,-0.0204468,0.045166,0.00823975,0.0137329,0.0375366,0.0354004,0.012207,0.0234985,-0.03479,0.0411987,0.0308228
130,1,0.0491333,0.0299072,0.00579834,0.0195312,0.012207,0.0164795,0.0308228,0.0204468,0.00427246,0.0534058,-0.0350952,0.032959,0.0320435
130,2,0.0372314,0.0372314,0.0100708,0.0305176,0.0250244,0.0183105,0.0231934,0.0286865,0.0088501,0.0216675,-0.0268555,0.0259399,0.0674438
130,3,-0.00244141,0.0469971,0.0320435,0.0292969,0.0231934,0.0195312,0.0256348,0.0195312,0.0302124,0.0750732,-0.0393677,0.0305176,0.00732422
130,4,0.0265503,0.0247192,0.0567627,0.0482178,0.0280762,0.0360107,0.0326538,0.0253296,0.020752,0.00915527,-0.0268555,0.0271606,0.0448608
131,0,0.0375366,0.0320435,0.103149,0.0265503,0.0195312,0.0283813,0.0204468,0.0143433,0.0210571,0.0341797,-0.00671387,0.03479,0.0552368
131,1,0.0289917,0.0610352,0.090332,0.0314331,0.0292969,0.00946045,0.0317383,0.0314331,0.0186157,0.0299072,-0.0323486,0.0262451,0.0228882
131,2,0.0311279,0.022583,0.109863,0.0131226,0.0354004,0.0112915,-0.00213623,0.0164795,0.00976562,0.0274658,-0.0497437,0.0253296,0.0393677
131,3,0.0247192,0.0219727,0.093689,0.020752,0.0143433,-0.0231934,0.0195312,0.0344849,0.0714111,0.00701904,-0.0259399,-0.0137329,0.0360107
131,4,0.00488281,0.0292969,0.0970459,0.022583,0.0271606,0.0869751,0.032959,0.00427246,-0.0390625,0.022583,-0.0177002,0.0222778,0.0354004
132,0,0.0454712,0.0167847,0.109863,0.0341797,0.0280762,0.0143433,-0.0149536,0.0234985,0.0088501,0.0704956,-0.0106812,0.0265503,0.0665283
132,1,0.0305176,0.0198364,0.0927734,0.0357056,0.0106812,0.0195312,0.032959,0.0216675,0.00762939,0.015564,-0.0177002,0.0366211,0.0430298
132,2,0.038147,0.0265503,0.0964355,0.0170898,0.0268555,-0.0335693,0.0482178,0.0186157,0.0628662,0.0289917,-0.0231934,0.0363159,0.0244141
132,3,-0.0112915,0.0378418,0.0613403,0.0256348,0.0247192,0.00366211,0.0158691,0.0128174,0.0219727,0.0204468,-0.027771,0.0198364,0.0283813
132,4,0.0262451,0.039978,0.0912476,0.0262451,0.0250244,0.0234985,0.0140381,-0.0408936,0.00732422,0.0213623,0.00732422,0.0177002,0.0369263
133,0,-0.0106812,0.0396729,0.0808716,0.0131226,0.0274658,0.0369263,0.0213623,0.020752,0.00640869,0.0256348,-0.0476074,0.0170898,0.0274658
133,1,0.0357056,0.0286865,0.0811768,0.0460815,0.027771,0.00183105,0,0.0146484,0.0204468,-0.0195312,-0.017395,0.0289917,-0.0299072
133,2,0.010376,0.0247192,0.0857544,0.022583,0.0448608,0.0158691,0.0198364,0.0012207,0.0268555,0.032959,-0.03479,0.0335693,0.0289917
133,3,0.0283813,0.0299072,0.0808716,0.022583,0.0396729,0.0228882,-0.0183105,0.0177002,-0.0180054,0.0320435,-0.0262451,0.0357056,0.039978
133,4,0.0286865,0.0192261,0.062561,0.0189209,0.0234985,0.0299072,0.0274658,0.0265503,0.00762939,0.0448608,-0.0186157,0.00976562,-0.0335693
134,0,0.0497437,0.0219727,-0.0582886,0.0100708,-0.0128174,0.0222778,0.017395,0.0244141,0.0241089,0.0311279,-0.0332642,0.0271606,0.0183105
134,1,0.0143433,0.0314331,0.0106812,0.0137329,0.0149536,0.0231934,0.0241089,0.0247192,0.0198364,0.010376,-0.0241089,0.0985718,0.0357056
134,2,0.0286865,0.0177002,0.0219727,0.0164795,0.0372314,0.0271606,0.0119019,0.0234985,0.0088501,0.0234985,-0.0140381,0.032959,0.0531006
134,3,0.0448608,0.0231934,0.0241089,0.0262451,0.0509644,0.0405884,0.0238037,0.0192261,-0.032959,0.0418091,-0.0292969,0.0354004,0.0262451
134,4,0.0393677,0.0250244,0.140686,0.022583,0.0274658,-0.00793457,0.0210571,0.0152588,-0.0518799,0.0314331,-0.0250244,0.00183105,0.0387573
135,0,0.0241089,0.0439453,0.0576782,0.0354004,0.0128174,0.0363159,0.0167847,0.0125122,0.00457764,0.0265503,-0.00946045,0.0463867,0.0320435
135,1,0.0421143,0.0250244,0.0823975,0.0216675,0.0274658,0.027771,-0.00701904,0.00854492,0.020752,0.0527954,-0.0305176,0.039978,0.0088501
135,2,0.0210571,0.0280762,0.098877,0.0289917,0.0418091,0.00946045,0.0170898,0.0671387,0.00396729,0.0158691,-0.0198364,0.0183105,0.0109863
135,3,0.0308228,0.0274658,0.0570679,0.0143433,0.0262451,0.0357056,0.0119019,0.0344849,0.0228882,0.0283813,-0.0354004,0.0238037,0.0180054
135,4,0.0363159,0.103455,0.0119019,0.0311279,-0.038147,0.0384521,0.0149536,0.0387573,0.00946045,0.0378418,-0.0216675,0.0323486,0.0308228
136,0,0.0186157,-0.03479,-0.00671387,0.032959,0.0311279,0.0271606,0.0170898,0.0128174,0.0222778,0.0170898,-0.0201416,0.043335,0.0186157
136,1,0.027771,0.0213623,-0.0201416,0.0177002,0.0280762,0.0262451,-0.00457764,0.0106812,0.012207,0.0170898,-0.0357056,0.0323486,0.0317383
136,2,0.0128174,0.0250244,-0.0228882,0.0204468,0.0320435,0.0152588,0.00640869,0.00671387,0.0192261,0.0311279,-0.020752,0.0311279,-0.00915527
136,3,0.020752,-0.00549316,-0.0125122,0.0234985,0.0982666,0.0299072,0.0219727,0.0338745,0.0100708,0.0271606,-0.0320435,0.0296021,0.020752
136,4,-0.0119019,0.027771,-0.0610352,0.0314331,0.0213623,0.0183105,0.0933838,0.020752,0.0244141,-0.0442505,-0.00640869,0.0378418,0.0286865
137,0,-0.000610352,0.0213623,-0.0894165,0.0161743,0.0262451,-0.00518799,0.0222778,0.0143433,0.0125122,0.0305176,-0.0289917,0.0253296,0.0378418
137,1,0.0378418,0.0259399,-0.0869751,0.022583,0.0296021,0.0244141,0.0326538,0.0296021,0.032959,0.0332642,-0.0238037,0.0210571,0.0180054
137,2,0.0317383,0.020752,-0.111389,0.0131226,0.03479,-0.0167847,0.0189209,0.0234985,-0.0134277,0.0488281,-0.0256348,0.0949097,0.057373
137,3,0.0195312,0.0115967,-0.0662231,0.0259399,0.027771,0.0228882,0.0152588,0.0238037,0.0689697,0.0280762,-0.0189209,-0.00366211,0.027771
137,4,0.0247192,-0.000305176,-0.0201416,0.020752,0.0387573,0.0244141,0.0189209,0.0149536,0.020752,0.0335693,-0.00946045,-0.00671387,0.0372314
138,0,0.0204468,0.0366211,0.0384521,0.0268555,0.0149536,-0.0216675,0.0213623,0.00976562,0.020752,0.0198364,-0.012207,0.0302124,0.0350952
138,1,0.0140381,0.0170898,0.03479,0.0946045,0.0344849,0.0228882,-0.00152588,0.0289917,0.0167847,-0.0271606,-0.0280762,0.0219727,0.000610352
138,2,0.0259399,0.0192261,0.00488281,0.0280762,0.101013,0.0314331,0.0280762,0.0320435,0.0115967,0.0234985,-0.0387573,0.0384521,0.0250244
138,3,0.0253296,0.027771,0.032959,0.0125122,0.0256348,0.00793457,0.0268555,0.0231934,0.0338745,0.0222778,-0.0152588,0.0262451,0.0302124
138,4,0.0210571,-0.00274658,0.0491333,0.0189209,0.0384521,0.00427246,0.0241089,0.0228882,0.0280762,0.0112915,-0.0213623,0.0283813,0.0106812
139,0,0.0271606,0.0558472,0.0790405,0.0186157,0.0128174,0.0299072,0.0195312,-0.0302124,0.0128174,0.0177002,-0.0222778,0.0140381,0.0204468
139,1,0.0476074,0.0231934,0.0689697,0.00579834,0.0265503,0.0128174,0.0378418,0.0186157,0.0231934,0.022583,0.00427246,0.0283813,0.0128174
139,2,0.0253296,0.0253296,0.0726318,0.0100708,0.0357056,0.0192261,0.0143433,0.0250244,0.0210571,0.0671387,-0.0241089,0.0271606,0.00701904
139,3,-0.00366211,0.0228882,0.0775146,0.06073,0.0411987,0.0344849,0.0418091,0.0204468,0.0170898,0.0177002,-0.0262451,0.0296021,0.0241089
139,4,0.0280762,0.0183105,0.0796509,0.0299072,0.0384521,0.0393677,0.0149536,0.0265503,0.0201416,0.0112915,-0.0201416,0.0387573,0.0216675
140,0,0.0701904,0.0332642,0.0512695,-0.0427246,0.043335,0.0286865,0.0350952,0.0177002,0.0305176,0.0158691,-0.00183105,0.0323486,0.00671387
140,1,0.0320435,0.0384521,0.0701904,-0.00305176,0.0445557,0.0314331,0.0308228,-0.032959,0.0360107,0.0274658,-0.0268555,0.017395,0.0271606
140,2,0.0460815,0.0369263,0.0680542,0.00396729,0.0314331,0.032959,0.0292969,0.020752,0.0448608,0.0195312,-0.0283813,-0.0289917,0.0308228
140,3,0.0158691,0.0262451,0.0692749,0.015564,0.0323486,-0.0210571,0.0436401,0.0296021,0.0695801,-0.00579834,-0.0177002,-0.00213623,0.0424194
140,4,0.0286865,0.0311279,0.0469971,0.0234985,0.0292969,0.0341797,0.0323486,0.022583,0.0137329,0.0247192,-0.0262451,0.0109863,0.015564
141,0,0.0164795,0.0183105,-0.135803,0.0448608,0.0350952,0.0201416,0.0271606,0.0177002,0.0131226,0.0125122,-0.0244141,0.0204468,0.0308228
141,1,0.0161743,0.0280762,-0.0927734,0.0125122,0.0320435,0.0427246,0.0790405,0.0164795,0.0125122,0.0161743,-0.0253296,0.0134277,-0.00213623
141,2,0.0219727,0.0170898,-0.078125,0.0183105,0.0213623,0.0109863,0.0308228,0.017395,0.0515747,0.0274658,-0.0186157,0.0250244,0.0238037
141,3,0.0189209,-0.017395,-0.0842285,0.00701904,0.108337,0.0332642,0.0360107,-0.00823975,0.0210571,0.0192261,-0.0177002,0.0274658,0.0152588
141,4,0.0100708,0.0732422,-0.0143433,0.0112915,0.0109863,0.0219727,0.0375366,0.027771,0.0088501,0.0250244,-0.0167847,0.0231934,0.0234985
142,0,0.0161743,0.0265503,0.00427246,0.0170898,-0.0201416,0.03479,0.0396729,-0.0140381,0.0308228,0.0201416,-0.0714111,0.0302124,0.0125122
142,1,0.0393677,0.0262451,0.0241089,0.00305176,0.0424194,0.0518799,0.0320435,0.03479,0.0170898,0.0372314,-0.015564,0.0250244,0.00762939
142,2,0.0247192,0.0231934,-0.0299072,0.0213623,0.03479,-0.0167847,0.0415039,0.0280762,-0.0115967,0.0100708,-0.0195312,0.0231934,0.0280762
142,3,-0.017395,-0.00732422,0.0210571,0.0195312,0.0375366,0.0180054,0.03479,0.0274658,0.0152588,0.0189209,-0.00366211,0.0369263,0.0228882
142,4,0.0158691,0.0491333,0.0253296,0.0219727,0.0378418,0.017395,0.022583,0.0228882,0.0222778,0.0146484,-0.0189209,-0.0161743,0.0253296
143,0,0.0146484,0.027771,0.00823975,0.00946045,0.0250244,0.0241089,0.0314331,0.0314331,0.0231934,0.0140381,-0.0613403,0.0271606,-0.00915527
143,1,0.0317383,0.00915527,0.0112915,0.0549316,0.0515747,0.0286865,0.0717163,0.0161743,0.0238037,0.0524902,-0.0668335,0.0219727,0.0753784
143,2,0.0177002,0.0112915,0.0247192,0.0167847,0.0335693,0.0210571,0.0402832,0.0219727,0.0192261,-0.00640869,-0.0137329,0.0323486,-0.0256348
143,3,0.0299072,0.0256348,0.015564,0.0326538,0.0286865,0.0314331,0.045166,0.0292969,0.0247192,0.0158691,-0.00762939,0.0231934,0.0634766
143,4,0.0100708,0.00244141,0.0259399,0.0134277,0.0195312,0.0326538,0.0424194,0.0320435,0.0256348,-0.0119019,-0.0149536,0.0250244,0.045166
144,0,0.0119019,0.0360107,0.0109863,0.00946045,0.0149536,0.0228882,0.0418091,0.0415039,0.0234985,0.0189209,-0.0238037,0.0231934,-0.00183105
144,1,0.010376,0.0198364,0.0100708,0.0119019,0.0238037,0.0183105,0.03479,0.0320435,0.0186157,0.00244141,-0.0280762,0.0234985,0.0012207
144,2,-0.0131226,0.0366211,0.0170898,0.0228882,0.015564,0.0256348,0.0308228,0.0296021,0.0265503,0.0128174,-0.0244141,0.0180054,-0.000915527
144,3,0.0262451,0.067749,0.0299072,0.00793457,-0.00457764,0.0421143,0.0292969,0.045166,0.0283813,0.0234985,-0.0335693,0.0137329,0.0143433
144,4,0.0244141,0.0198364,0.0335693,0.0137329,0.0540161,0.017395,0.0357056,0.0350952,0.0311279,0.0274658,-0.0219727,0.010376,0.0125122
145,0,0.0170898,0.00518799,0.0170898,0.0219727,0.0448608,0.0344849,0.0317383,0.0216675,0.012207,0.0183105,-0.0119019,0.0112915,0.0140381
145,1,0.0262451,0.0238037,-0.0680542,0.0653076,0.022583,0.0415039,0.0283813,0.0323486,-0.00549316,0.0308228,-0.0222778,0.0146484,0.0161743
145,2,0.0302124,0.0186157,-0.0518799,0.0576782,0.0360107,0.0521851,0.0314331,0.0357056,0.0106812,0.0170898,-0.010376,0.0119019,0.00152588
145,3,0.0238037,0.0820923,-0.0585938,0.0250244,0.0796509,0.0234985,0.0262451,0.043335,0.032959,0.0354004,-0.0170898,0.00732422,0.0265503
145,4,0.0341797,0.0222778,-0.0384521,0.0430298,0.0299072,0.0332642,0.050354,0.0323486,0.0106812,0.0588989,0.0216675,0.017395,-0.0256348
146,0,0.0158691,0.020752,0.00488281,0.0332642,0.0183105,0.0204468,0.0384521,0.039978,0.00549316,0.0253296,-0.0628662,0.0274658,0.00976562
146,1,0.0436401,0.015564,0.032959,0.0219727,0.0308228,0.0335693,0.0292969,0.0320435,0.022583,0.022583,-0.0231934,0.0302124,0.0354004
146,2,0.0372314,0.0305176,0.00915527,0.0299072,0.0457764,0.0280762,0.0427246,0.0152588,0.020752,0.0350952,-0.0167847,0.0219727,0.0250244
146,3,0.0256348,-0.0167847,0.0616455,0.0289917,-0.0170898,0.0161743,0.0454712,0.00549316,0.0216675,0.0241089,-0.0128174,0.0198364,0.0131226
146,4,0.0308228,0.000305176,0.0457764,0.017395,0.0296021,0.032959,0.0408936,0.0335693,0.015564,0.0201416,-0.0140381,0.0256348,0.0186157
147,0,0.0198364,0.0177002,0.101929,0.0143433,-0.0119019,0.032959,0.0415039,0.0335693,0.0183105,0.0140381,0.010376,0.0201416,0.0280762
147,1,0.0335693,0.0210571,0.0662231,0.0799561,0.017395,0.0210571,0.00823975,0.0210571,0.0128174,0.017395,-0.0213623,0.0201416,0.0286865
147,2,0.0170898,0.00488281,0.078125,0.0296021,0.0311279,0.0701904,0.0201416,0.0228882,0.0537109,0.0088501,-0.00427246,0.0540161,0.022583
147,3,0.0332642,0.00823975,0.0790405,0.0137329,0.0302124,0.0152588,0.0323486,0.0292969,0.0463867,0.0125122,-0.0292969,0.0549316,0.0259399
147,4,0.0234985,0.0222778,0.09552,0.0375366,0.0204468,0.0994873,0.0332642,0.0338745,0.0469971,0.0460815,-0.0164795,0.00793457,0.0170898
148,0,0.0088501,0.0192261,0.0421143,0.0274658,0.0195312,0.0494385,0.0305176,0.0341797,0.057373,0.0149536,-0.0317383,0.0265503,0.0378418
148,1,-0.0161743,0.0125122,0.0839233,0.0421143,0.0326538,0.020752,0.0366211,0.0250244,0.0183105,-0.0115967,-0.00518799,0.0231934,-0.0167847
148,2,0.0170898,0.0189209,0.102844,0.0375366,0.0292969,0.038147,0.0292969,0.0299072,0.0228882,0.00610352,-0.0247192,0.0146484,-0.0146484
148,3,0.00854492,0.00396729,0.0814819,0.0302124,0.0280762,0.0320435,0.0671387,0.0302124,0.0143433,0.03479,-0.0216675,-0.0125122,0.0219727
148,4,0.0143433,0.0192261,0.0701904,0.0292969,0.0341797,0.0408936,0.0289917,0.0402832,0.0204468,-0.00427246,-0.0341797,0.0140381,0.0299072
149,0,0.0283813,0.00213623,0.0671387,-0.0244141,0.020752,0.0357056,0.0610352,0.0335693,0.0326538,0.00793457,0.00732422,0.00366211,0.00427246
149,1,0.0106812,0.0396729,0.0613403,0.0335693,0.0265503,0.0216675,0.0219727,0.020752,0.0326538,-0.0109863,-0.0311279,0.0134277,0.0152588
149,2,0.00549316,-0.0296021,-0.0708008,0.0332642,0.055542,0.0341797,0.0253296,0.0250244,0.0222778,-0.0311279,-0.0210571,0.00518799,0.0274658
149,3,0.015564,0.0158691,-0.12146,0.0286865,0.0250244,0.0772095,0.015564,0.0396729,0.0259399,-0.0378418,-0.0109863,0.0119019,0.0259399
149,4,-0.0430298,0.0167847,-0.0506592,0.0405884,0.0271606,0.0335693,0.032959,0.0222778,0.0140381,-0.057373,0.0112915,0.0234985,0.0299072
150,0,0.0296021,0.0183105,-0.0836182,0.0119019,0.0250244,0.0631714,0.0250244,0.0350952,0.0738525,-0.0662231,-0.0305176,-0.00640869,0.0170898
150,1,0.0234985,0.00671387,-0.0158691,0.0332642,0.0109863,0.038147,-0.0213623,0.0268555,0.0152588,-0.0836182,-0.0274658,0.0228882,0.0149536
150,2,0.0241089,0.0170898,-0.0360107,0.0500488,0.0274658,0.0241089,0.0308228,0.0231934,0.03479,-0.0552368,-0.022583,0.0146484,0.0326538
150,3,0.0119019,0.0140381,0.00762939,-0.0149536,0.0271606,0.0299072,0.0183105,0.0524902,0.0384521,-0.0979614,-0.0247192,0.00793457,0.0228882
150,4,0.00976562,0.00915527,0.0286865,0.0161743,0.0180054,0.0305176,0.0405884,0.0289917,0.0131226,-0.032959,-0.012207,0.0143433,0.020752
151,0,0.0167847,0.0167847,0.0738525,0.00183105,0.0341797,-0.00946045,0.0241089,0.0384521,0.0439453,-0.0363159,-0.020752,0.0134277,0.0265503
151,1,-0.0088501,0.0140381,0.0787354,0.0256348,0.015564,0.0164795,0.0411987,-0.00946045,0.0250244,-0.0234985,-0.0164795,0.00671387,0.0180054
151,2,0.0125122,0.00823975,-0.0012207,0.0247192,0.012207,0.0402832,0.017395,0.0393677,0.0210571,-0.0234985,-0.0222778,0.00366211,0.0289917
151,3,0.00915527,0.0668335,0.0396729,0.0268555,0.0714111,0.0466919,0.0274658,0.0894165,0.0350952,-0.0106812,-0.0210571,0.00701904,0.0234985
151,4,0.0421143,-0.0463867,0.0524902,-0.000305176,-0.0302124,0.020752,0.0305176,0.0161743,0.0259399,-0.00518799,-0.0280762,0.0186157,0.017395
152,0,0.0170898,0.0643921,0.00579834,0.0271606,0.0244141,0.0375366,0.0250244,0.0253296,0.0265503,-0.00640869,-0.0201416,0.0698853,0.0192261
152,1,0.0152588,0.0845337,-0.0204468,0.0137329,0.00671387,0.0262451,0.0357056,0.022583,0.0366211,-0.00427246,-0.012207,-0.00732422,0.0134277
152,2,0.00427246,0.00640869,0.00640869,0.020752,0.0186157,0.0119019,0.0143433,0.0238037,0.0256348,-0.000305176,-0.0262451,0.0125122,0.0183105
152,3,0.0170898,0.027771,-0.020752,0.0216675,0.0228882,0.0167847,0.0210571,0.0335693,0.0305176,-0.0115967,-0.027771,0.0222778,0.0338745
152,4,0.0201416,0.00457764,-0.0244141,0.00640869,0.0210571,0.0338745,0.0384521,0.0286865,0.00701904,0.00701904,-0.020752,0.00518799,-0.00518799
153,0,0.0515747,-0.00183105,-0.0619507,0.0769043,0.0216675,0.0332642,-0.0186157,0.0540161,0.0350952,0.0234985,-0.0241089,0.00152588,0.0109863
153,1,0.0186157,0.00915527,-0.0430298,0.020752,0.0360107,0.0305176,0.0305176,0.0259399,0.0216675,0.0158691,-0.0180054,0.00610352,0.0219727
153,2,0.0262451,0.0479126,-0.0491333,0.0183105,0.0186157,0.039978,0.0296021,0.03479,0.0247192,0.0265503,-0.0164795,0.00518799,0.0286865
153,3,0.0195312,0.0146484,-0.0546265,0.00915527,0.022583,0.0302124,0.0274658,0.0186157,0.0408936,0.0268555,-0.00518799,0.0219727,0.0222778
153,4,0.0100708,0.010376,-0.0515747,0.0125122,0.0216675,0.0338745,0.0314331,0.0280762,0.0418091,0.0271606,-0.0192261,0.0653076,0.0256348
154,0,0.00915527,0.0558472,-0.0308228,-0.00213623,0.0396729,0.0335693,0.0372314,0.0402832,0.0396729,0.045166,-0.0222778,0.0253296,0.00793457
154,1,0.0247192,0.0860596,-0.00183105,0.0186157,-0.0198364,0.0378418,0.0289917,0.0393677,0.03479,0.0369263,-0.0222778,-0.00183105,0.0247192
154,2,0.0253296,0.0238037,0.0686646,0.00152588,0.0262451,0.0378418,0.0289917,0.0189209,0.0296021,0.0289917,-0.0161743,0.0219727,0.00640869
154,3,0.0198364,0.0167847,0.00793457,0.0213623,0.0341797,0.032959,0.0357056,0.00732422,0.0265503,0.0457764,-0.0137329,0.0152588,0.0100708
154,4,0.012207,0.0198364,0.0744629,0.0106812,0.032959,-0.012207,0.0698853,0.0384521,0.0265503,0.0479126,-0.015564,0.0213623,0.0283813
155,0,0.022583,0.0128174,0.0543213,0.0158691,0.00823975,0.0387573,0.0473022,0.0323486,0.0613403,0.0354004,-0.020752,0.0262451,0.0183105
155,1,0.00518799,0.0894165,0.102539,0.0250244,-0.03479,0.0350952,0.0311279,0.017395,0.0161743,0.038147,-0.00732422,0.0283813,0.0213623
155,2,0.0512695,0.0164795,0.0866699,0.0265503,0.0164795,0.0250244,0.0595093,0.017395,0.0372314,0.0299072,-0.0289917,0.0305176,0.0262451
155,3,0.0146484,0.00946045,0.0238037,0.0238037,0.0164795,0.0335693,0.0271606,0.0424194,0.0588989,0.050354,-0.020752,0.0283813,0.0201416
155,4,-0.00549316,0.0268555,0.0357056,0.0134277,0.0134277,0.0308228,0.0469971,0.0280762,0.0350952,0.0512695,-0.0500488,0.0183105,0.0137329
156,0,-0.0326538,0.0183105,-0.00244141,0.0280762,0.0146484,0.0323486,0.020752,0.0292969,0.0204468,0.0579834,-0.0320435,0.0280762,0.0106812
156,1,0.0213623,0.0177002,-0.00610352,0.0231934,0.0177002,0.00518799,0.0344849,0.0506592,0.0106812,0.0524902,-0.0158691,0.0622559,0.0219727
156,2,0.0222778,0.0326538,-0.010376,0.010376,0.00610352,0.0247192,0.0238037,0.0579834,0.0238037,0.050354,0.0100708,0.0241089,0.0332642
156,3,0.0283813,0.0296021,-0.0262451,0.010376,0.0149536,0.0289917,0.0396729,0.0427246,0.0210571,0.0469971,-0.0314331,0.00457764,0.0222778
156,4,0.0177002,0.0115967,-0.0418091,0.00976562,0.0161743,0.020752,0.0134277,0.0332642,0.0320435,-0.010376,-0.0256348,0.0012207,0.00366211
157,0,0.015564,0.00671387,-0.106506,-0.000305176,0.0137329,0.0338745,0.0262451,0.0265503,0.0482178,0.022583,-0.0228882,0.0186157,0.0262451
157,1,0.0128174,0.0177002,-0.105591,0.000610352,0.0119019,0.012207,0.0378418,0.0253296,0.0326538,0.0408936,-0.03479,0.0186157,-0.0228882
157,2,0.0244141,0.0286865,-0.071106,-0.000305176,0.0219727,0.0125122,0.0311279,0.0231934,0.0253296,0.0375366,-0.0332642,0.0088501,0.022583
157,3,0.0662231,0.0265503,-0.0509644,0.0137329,0.0299072,0.0198364,0.012207,0.020752,0.0378418,0.0283813,-0.0506592,0.0244141,0.0939941
157,4,0.0259399,0.0140381,-0.0778198,0.0357056,0.0332642,0.00823975,-0.0158691,0.0210571,0.0332642,0.0204468,-0.0314331,0.0183105,0.0320435
158,0,0.00701904,0.0210571,-0.0238037,-0.00305176,-0.0088501,0.00976562,0.0305176,0.0820923,0.032959,0.0558472,-0.0646973,0.0241089,0.0271606
158,1,0.0219727,0.0305176,0,0.00823975,0.0158691,0.0143433,0.0167847,0.0262451,0.0112915,0.0653076,-0.0396729,0.0283813,0.0320435
158,2,0.0430298,0.027771,0.0479126,0.0262451,0.00640869,0.00640869,-0.0161743,0.0308228,0.0210571,0.112,-0.0335693,0.0146484,-0.0241089
158,3,0.0265503,0.0125122,0.0259399,-0.0115967,-0.00152588,0.00213623,0.0317383,0.0344849,0.03479,0.062561,-0.0463867,0.0738525,0.0167847
158,4,0.0170898,0.022583,0.0442505,0.00854492,0.00915527,0.0506592,0.0311279,0.0469971,0.0213623,0.0579834,-0.0274658,0.0213623,0.0360107
159,0,0.0393677,-0.0311279,0.0683594,0.00854492,0.0109863,0.0369263,0.0283813,0.0262451,0.0332642,0.0552368,-0.0286865,0.022583,0.0213623
159,1,0.0314331,-0.00701904,0.116272,0.00732422,0.00823975,0.0360107,0.0326538,0.0448608,0.0292969,0.0628662,-0.0231934,0.0125122,0.0244141
159,2,-0.0344849,0.0262451,0.0772095,0.0292969,0.0125122,0.0186157,0.020752,0.0317383,0.022583,0.0631714,-0.0479126,0.0234985,0.0244141
159,3,0.0280762,0.0170898,0.0549316,0.0146484,0.00732422,0.00946045,-0.00488281,0.0286865,0.0299072,0.0683594,-0.0320435,0.00244141,0.0241089
159,4,0.0326538,0.00488281,0.072937,0.0146484,0.0296021,0.0183105,0.0210571,0.0234985,0.0296021,0.0680542,-0.0350952,0.0354004,0.0271606
160,0,0.0299072,0.0210571,0.0558472,0.0161743,0.00305176,0.0106812,0.0308228,0.0317383,0.0326538,0.067749,-0.0354004,0.0436401,0.0302124
160,1,0.032959,0.0100708,0.0280762,0.0180054,0.00793457,0.045166,0.0216675,0.0344849,0.0357056,0.0668335,-0.0424194,0.0280762,0.10376
160,2,0.00579834,0.00732422,0.0112915,0.0231934,0.0231934,0.017395,0.0161743,0.0411987,0.0372314,0.0750732,-0.0405884,0.03479,0.0265503
160,3,0.0268555,0.022583,0.0140381,0.0283813,0.0222778,0.0228882,-0.0289917,0.043335,0.0167847,-0.0149536,-0.0390625,0.0189209,0.0320435
160,4,0.0360107,0.0210571,0.00671387,0.00488281,0.0170898,0.0198364,0.0149536,0.0405884,-0.00213623,0.0778198,-0.038147,0.0198364,0.0369263
161,0,0.0393677,0.0152588,0.0656128,0.0250244,0.0219727,0.0604248,0.0201416,0.0466919,0.0109863,0.0790405,-0.0372314,0.0234985,0.0241089
161,1,0.0335693,-0.0390625,0.00427246,0.012207,0.000610352,0.00976562,0.0311279,0.0332642,0.0292969,0.078125,-0.0253296,0.00976562,0.0289917
161,2,0.0308228,0.0375366,0.0177002,0.0228882,0.017395,0.00762939,0.0262451,0.0326538,-0.00518799,0.0561523,-0.0344849,0.050354,0.0326538
161,3,0.0274658,0.0164795,0.00274658,-0.00671387,0.00549316,0.0183105,0.0204468,0.0531006,0.0219727,0.0628662,-0.0332642,0.0201416,0.0308228
161,4,0.0268555,0.0177002,0.0210571,0.0253296,0.020752,0.00488281,0.0256348,0.0436401,-0.0305176,0.0744629,-0.0183105,0.078125,0.0274658
162,0,0.0201416,0.0115967,0.00915527,0.0186157,0.0265503,0.0161743,0.0140381,0.0354004,0.0247192,0.0640869,-0.0320435,0.0372314,-0.0372314
162,1,0.00793457,0.0234985,0.022583,0.010376,0.0137329,0.0265503,0.0234985,0.0335693,0.0149536,0.0643921,-0.0335693,0.0259399,0.0241089
162,2,0.0338745,0.0234985,0.0146484,0.0244141,-0.00335693,0.00946045,0.0271606,0.0320435,0.0430298,0.0640869,-0.0375366,0.0341797,0.0241089
162,3,0.0314331,0.00549316,-0.0366211,0.0271606,0.0222778,0.0585938,0.0183105,0.0411987,-0.038147,0.0515747,-0.0189209,0.0585938,0.0350952
162,4,0.043335,0.0308228,0.00762939,0.0289917,0.0512695,0.0189209,0.0149536,0.0341797,0.020752,0.0601196,-0.0247192,0.0180054,0.0292969
163,0,0.0216675,0.0228882,-0.0241089,0.0115967,0.0143433,0.0234985,0.0396729,0.0308228,0.0332642,0.0604248,-0.022583,0.0567627,0.0241089
163,1,0.0344849,-0.00549316,0.0170898,0.0164795,0.00579834,0.0146484,0.03479,0.0582886,0.0418091,0.067749,-0.0296021,0.039978,0.0112915
163,2,0.027771,0.0213623,0.0134277,0.0436401,0.0180054,0.017395,0.0112915,0.0424194,0.0299072,0.0469971,-0.0457764,0.0369263,0.0195312
163,3,0.0308228,0.0250244,0.0158691,0.0271606,0.0170898,0.022583,0.0231934,0.0396729,0.0408936,0.00549316,-0.0357056,0.0241089,0.0332642
163,4,0.0283813,0.0259399,0.00976562,0.0112915,0.0234985,0.0115967,0.0265503,0.0598145,0.0372314,0.0180054,-0.0393677,0.0292969,-0.0140381
164,0,0.043335,0.0253296,0.0183105,0.0744629,0.0143433,0.0192261,0.043335,0.0231934,0.0280762,0.0537109,-0.0408936,0.0299072,0.0241089
164,1,0.0234985,0.017395,0.00701904,0.0250244,-0.00213623,0.00732422,0.020752,0.0222778,0.0445557,0.0549316,-0.0283813,0.0338745,0.0265503
164,2,0.0454712,0.0244141,0.0128174,0.0137329,0.00244141,-0.0305176,0.0265503,0.0442505,-0.0408936,0.0497437,-0.0314331,-0.0219727,0.0372314
164,3,0.0262451,0.0222778,0.0180054,0.00305176,0.0250244,0.0338745,-0.000610352,0.0357056,0.0238037,0.0619507,-0.0350952,0.0299072,0.0408936
164,4,0.0378418,0.0247192,0.0479126,-0.00183105,0.0170898,0.0234985,0.0250244,0.038147,0.0308228,0.0482178,-0.0317383,0.0189209,0.0314331
165,0,0.0445557,0.0183105,0.0012207,0.0134277,0.00854492,0.0119019,0.0305176,0.0354004,0.0283813,0.050354,-0.0274658,0.0341797,0.032959
165,1,0.0201416,-0.0521851,-0.00366211,0.0125122,0.00488281,0.022583,0.0234985,0.039978,0.0396729,0.0350952,-0.0372314,0.0332642,0.0408936
165,2,0.0411987,0.0100708,0.0137329,0.020752,0.0411987,0.0231934,0.0192261,0.000915527,0.0143433,0.0494385,-0.0183105,0.0372314,0.0262451
165,3,0.0387573,0.0735474,0.0247192,0.00915527,-0.0442505,0.0296021,0.0265503,0.0253296,0.00640869,0.0439453,-0.0234985,0.0253296,0.0259399
165,4,0.0250244,0.0234985,0.0131226,0.0244141,0.00488281,0.0259399,0.0311279,0.0238037,0.0183105,0.0512695,-0.0421143,0.0326538,0.0292969
166,0,0.0405884,0.0787354,0.0283813,0.00579834,-0.0387573,0.0259399,0.0213623,0.0653076,0.0274658,0.0552368,-0.0338745,0.0149536,0.022583
166,1,0.0360107,0.0372314,0.0109863,-0.00793457,0.00671387,0.0683594,0.0375366,0.0308228,-0.00793457,0.0579834,-0.0421143,0.032959,0.0265503
166,2,0.0494385,0.0164795,-0.0115967,0.0152588,0.0115967,0.0161743,-0.0100708,0.0314331,0.0286865,0.0888062,-0.0332642,0.0274658,0.0396729
166,3,0.0167847,0.0369263,0.0222778,0.00640869,0.0161743,0.00366211,0.0506592,-0.00640869,0.0292969,0.0286865,-0.0286865,0.0302124,0.0448608
166,4,0.0201416,0.0796509,0.0152588,-0.0131226,-0.0271606,0.00946045,0.0421143,0.0405884,0.0308228,0.0537109,-0.0253296,0.0219727,0.0335693
167,0,-0.0149536,0.0323486,0.0320435,0.0518799,0.0152588,0.0408936,0.0234985,0.0198364,0.0198364,0.0479126,-0.0338745,0.0256348,0.0317383
167,1,0.0344849,0.0323486,0.00793457,0.00549316,-0.0540161,0.017395,0.00823975,0.0372314,0.0253296,0.050354,-0.0198364,0.0213623,0.0286865
167,2,0.0494385,0.0311279,0.0308228,-0.012207,0.00366211,0.0360107,0.0354004,0.0177002,0.0228882,0.0152588,-0.0308228,0.0271606,-0.0115967
167,3,0.0344849,0.0299072,0.101929,0.027771,0.0222778,0.0262451,0.0152588,0.0183105,0.0262451,-0.00671387,-0.0268555,0.0375366,0.0439453
167,4,0.0247192,0.0341797,0.0473022,0.0268555,0.00213623,0.0637817,0.00640869,-0.00579834,0.0219727,-0.00701904,-0.0430298,0.027771,0.0262451
168,0,0.0180054,0.0296021,0.0579834,-0.00488281,0.0106812,0.00549316,0.0170898,0.0170898,0.0289917,0.0115967,-0.0405884,0.0378418,0.0305176
168,1,0.0302124,0.0146484,0.0280762,0.0189209,0.0137329,0.0457764,0.0244141,0.0262451,0.00549316,0.00701904,-0.0323486,0.0271606,0.0231934
168,2,0.0390625,0.0265503,-0.00274658,0.0238037,0.00946045,0.0302124,0.0350952,0.00976562,0.0137329,0.00762939,-0.0338745,0.0241089,0.0387573
168,3,0.0390625,-0.00305176,0.022583,0.0396729,0.00549316,0.0146484,0.0109863,0.0292969,0.0375366,0.012207,-0.0280762,0.0189209,0.0134277
168,4,0.0375366,0.0357056,0.00305176,0.0161743,0.0177002,-0.00823975,0.0222778,0.0125122,0.0140381,0.0192261,-0.0292969,0.0274658,0.022583
169,0,0.0308228,0.0299072,-0.0164795,0.0320435,0.0341797,0.0192261,0.00488281,0.010376,0.0280762,0.00183105,-0.0418091,0.0366211,0.0241089
169,1,0.0253296,0.0372314,0.000915527,0.020752,0.0210571,0.00732422,0.0195312,0.0210571,0.0341797,-0.00427246,-0.0372314,0.0292969,0.0216675
169,2,0.0302124,0.0247192,-0.00152588,0.0106812,0.0396729,0.0271606,0.0274658,0.00946045,0.00946045,-0.00915527,0.00579834,0.0161743,0.03479
169,3,0.0827026,0.0308228,-0.00671387,0.0469971,0.039978,0.0201416,0.0137329,0.0195312,0.0186157,0.00549316,-0.0448608,0.0180054,0.0265503
169,4,0.0396729,0.0259399,-0.00305176,0.0234985,0.0201416,0.00762939,-0.00549316,0.0289917,0.0302124,0.00427246,-0.0531006,0.0204468,0.0393677
170,0,0.0292969,0.0354004,-0.00488281,0.0268555,0.0167847,0.0292969,0.00915527,0.0167847,0.0384521,-0.00274658,-0.0326538,0.00579834,0.0164795
170,1,-0.0308228,0.0488281,0.010376,0.0128174,0.0253296,0.0100708,0.0531006,0.00152588,0.0231934,0.0088501,-0.0653076,0.0296021,0.0186157
170,2,0.0360107,0.0619507,0.0473022,0.0326538,0.0271606,0.00335693,-0.00854492,0.0216675,0.0238037,-0.000915527,-0.0250244,0.0244141,0.0375366
170,3,0.0357056,0.027771,-0.0335693,0.0341797,0.0241089,0.0332642,0.0231934,0.0344849,0.0393677,0.0137329,-0.0320435,0.0302124,0.012207
170,4,0.0430298,0.0375366,0.0665283,0.022583,0.0332642,0.0189209,0.0134277,0.0299072,0.0317383,0.0149536,-0.0442505,0.0259399,0.0302124
171,0,0.0357056,0.0289917,0.0808716,0.0146484,0.0231934,0.0241089,0.00579834,0.0198364,0.0213623,-0.000610352,-0.0378418,0.0280762,0.0350952
171,1,0.0378418,0.0131226,0.127258,0.0341797,0.0326538,0.0149536,0.0259399,0.0244141,0.00305176,-0.0518799,-0.0256348,0.00396729,0.0268555
171,2,0.0286865,0.0357056,0.120239,0.00732422,0.032959,0.0100708,0.0228882,0.00946045,0.0317383,0.0247192,-0.0494385,0.0296021,0.0186157
171,3,0.0396729,0.0488281,0.109863,0.0289917,0.0308228,0.00854492,0.0256348,0.0143433,0.00640869,0.0344849,-0.0201416,-0.0161743,0.0238037
171,4,0.0402832,0.0524902,0.0991821,0.0366211,0.0186157,0.0213623,0.0234985,0.0387573,0.0280762,0.022583,-0.0210571,0.0274658,0.0177002
172,0,0.0128174,0.0366211,0.0567627,0.057373,0.0283813,0.038147,0.0131226,0.0250244,0.0250244,0.0393677,-0.0222778,0.0387573,0.0259399
172,1,0.0296021,0.0296021,0.0405884,0.0341797,0.0244141,-0.0012207,0.017395,0.0192261,0.0308228,0.0323486,-0.0369263,0.0479126,0.0408936
172,2,0.038147,0.0402832,-0.00244141,0.0387573,0.0308228,0.0238037,0.0112915,0.010376,-0.00335693,0.0244141,-0.0183105,0.0213623,0.0357056
172,3,0.017395,0.0296021,0.0119019,0.0204468,0.0289917,0.00457764,0.0213623,0.0146484,0.0195312,0.0311279,-0.0357056,0.00427246,0.0280762
172,4,0.0500488,0.0183105,0.015564,0.0469971,0.017395,0.0134277,0.0247192,0.0308228,-0.00427246,0.0350952,-0.0302124,0.0265503,0.0283813
173,0,0.0494385,0.0411987,-0.0448608,0.0521851,0.022583,0.0265503,0.0238037,0.00335693,0.0177002,0.0274658,-0.0289917,0.015564,-0.00579834
173,1,0.0311279,0.0265503,-0.0628662,0.0268555,0.0311279,0.00518799,0.022583,-0.0338745,0.00915527,0.0387573,-0.0326538,0.0299072,0.0405884
173,2,0.0286865,0.0189209,-0.0598145,0.0234985,0.0299072,0.0109863,0.0112915,-0.00305176,0.0164795,0.0445557,-0.0302124,0.0280762,0.0466919
173,3,0.0271606,0.0204468,-0.0500488,0.017395,0.00854492,0.0115967,0.0177002,0.020752,0.0216675,0.0592041,-0.0115967,0.0354004,0.0396729
173,4,0.027771,0.0271606,-0.0680542,0.032959,0.00549316,0.0170898,0.0744629,0.0256348,0.0109863,0.0509644,-0.0250244,0.032959,0.0247192
174,0,0.0302124,0.0332642,-0.00488281,0.015564,0.0292969,0.0222778,0.00518799,0.0231934,0.0222778,0.114441,-0.0238037,0.038147,0.0244141
