Devices
1000
,,Myon - Voltage,,,,,,,,,,,,,
Frame,Sub Frame,GC-M,TA,SOL,VM,VL,RF,BF,ST,GLUT-M,Gracilis,EO,GC-L,Semimembranosus
,,V,V,V,V,V,V,V,V,V,V,V,V,V
1,0,0.0405884,0.0158691,-0.0302124,0.0311279,0.0256348,0.0778198,0.0186157,0.0109863,0.0265503,0.000915527,-0.0125122,0.0167847,0.0234985
1,1,0.0595093,0.015564,0.00579834,0.0137329,0.0262451,0.0106812,-0.0466919,0.0442505,0.0256348,0.0497437,-0.0308228,0.0250244,0.0283813
1,2,0.0595093,0.00152588,0.0167847,0.0210571,0.0460815,0.0460815,0.00396729,0.0479126,0.0115967,0.00671387,-0.00946045,0.0262451,0.0247192
1,3,0.100708,0.0125122,0.00915527,0.0341797,0.0305176,0.0302124,-0.00823975,0.0402832,0.0241089,0.00274658,-0.0180054,0.0231934,0.0354004
1,4,0.0271606,0.00244141,0.0250244,0.0460815,0.0268555,0.0238037,0.0158691,0.050354,0.0131226,0.0152588,-0.0354004,0.0140381,0.0308228
2,0,0.039978,-0.0231934,0.0167847,0.0360107,0.022583,0.0366211,0.0222778,0.0662231,0.0183105,0.0201416,-0.0289917,0.0146484,0.0946045
2,1,0.0131226,0.00762939,0.0408936,0.000915527,0.0439453,0.00427246,-0.0012207,0.0570679,-0.0210571,0.0149536,-0.0296021,-0.0302124,0.0274658
2,2,-0.00244141,0.0177002,0.020752,0.0228882,0.0183105,0.0137329,0.00579834,0.0131226,-0.03479,0.0106812,-0.0204468,0.0320435,0.020752
2,3,-0.0012207,0.0863647,0.0268555,0.0189209,0.0149536,0.00976562,-0.000610352,-0.00915527,0.00915527,0.0231934,-0.0213623,-0.0134277,0.00732422
2,4,-0.0161743,0.0115967,-0.00213623,0.0515747,0.0250244,0.0643921,0.0326538,0.00274658,0.0265503,0.00579834,-0.0112915,-0.00366211,0.00366211
3,0,0.00549316,0.0115967,0.0234985,0.0149536,0.0231934,0.045166,0.0595093,0.0119019,0.0186157,-0.0161743,-0.0167847,0.0146484,-0.0262451
3,1,-0.0164795,-0.0183105,0.0274658,0.0305176,0.0341797,0.0332642,0.0262451,0.0204468,0.027771,0.0152588,-0.017395,0.0222778,0.00915527
3,2,-0.0231934,0.0149536,0.0308228,0.038147,0.0250244,-0.0167847,0.0250244,0.00671387,-0.0146484,0.00915527,-0.0238037,0.0012207,-0.00366211
3,3,-0.0259399,0.0375366,0.0234985,0.0311279,0.020752,0.0408936,0.0195312,-0.00732422,0.0265503,0.0088501,-0.0189209,0.020752,0.0186157
3,4,0.00549316,0.00854492,0.00518799,0.00854492,0.0189209,0.0274658,0.0265503,-0.0198364,0.0350952,0.0161743,-0.0125122,-0.020752,0.017395
4,0,0.0296021,0.0177002,0.0152588,0.03479,-0.0146484,0.0253296,0.0262451,-0.00274658,0.0286865,0.0134277,-0.00946045,0.00793457,0.0125122
4,1,0.0491333,-0.00762939,-0.00579834,0.0323486,0.0289917,0.0311279,0.00579834,0.0183105,0.00976562,-0.0238037,-0.0234985,0.0146484,0.0198364
4,2,0.0302124,0.00915527,0.00457764,0.0469971,0.0305176,0.0192261,0.0323486,0.0247192,0.0408936,0.0289917,-0.00854492,0.0283813,0.010376
4,3,0.0454712,0.015564,-0.032959,0.0204468,0.0457764,0.0775146,0.0411987,0.0158691,0.083313,0.0234985,-0.0323486,-0.0354004,0.0119019
4,4,0.0378418,0.015564,0.0192261,0.0219727,0.0363159,0.0430298,0.0479126,0.0244141,0.0219727,0.0164795,0.0247192,-0.00183105,0.00579834
5,0,0.0518799,0.0305176,0.00793457,0.0244141,0.0820923,0.0311279,0.0244141,0.0222778,0.0177002,0.0222778,-0.0234985,0.00732422,0.00610352
5,1,0.0527954,0.00274658,0.0170898,0.0167847,0.00976562,0.0839233,0.0375366,0.00305176,-0.0332642,0.0332642,-0.00915527,0.0253296,0.00701904
5,2,0.0210571,0.0146484,0.0543213,0.0274658,0.0259399,0.0234985,0.0360107,0.038147,0.0219727,0.0256348,-0.015564,0.0259399,0.00915527
5,3,0.00396729,0.00701904,0.0170898,0.0280762,0.0238037,0.0198364,0.0326538,0.0460815,0.00396729,0.0262451,-0.0177002,0.00854492,0.0158691
5,4,0.0286865,0.00610352,0.0204468,0.0283813,0.0299072,0.0299072,0.010376,0.0378418,0.0244141,0.0109863,-0.0238037,0.012207,0.0497437
6,0,0.00640869,0.00549316,0.0152588,0.057373,0.0201416,0.022583,0.0271606,0.0387573,0.0210571,0.0311279,-0.0296021,0.0216675,0.0308228
6,1,0.00946045,0.00549316,-0.00854492,0.00549316,0.0241089,0.0793457,0.032959,0.0549316,0.0421143,0.0317383,-0.0210571,0.0146484,0.0186157
6,2,0.015564,0.00305176,0.0195312,0.027771,0.0234985,0.0262451,0.0405884,0.0396729,0.0247192,0.0262451,-0.0149536,0.00701904,0.0125122
6,3,0.027771,0.0109863,0.00610352,0.0161743,0.0189209,0.0271606,0.0320435,0.0259399,0.0244141,0.0393677,-0.020752,0.0265503,0.0195312
6,4,0.015564,-0.00549316,0.027771,0.0192261,0.0686646,0.0314331,0.0442505,0.0363159,0.0262451,0.0152588,0.00518799,0.0158691,0.00915527
7,0,-0.0177002,0.0149536,0.0335693,0.0283813,0.0244141,0.0259399,0.0204468,0.0317383,0.038147,0.0317383,-0.0256348,0.0396729,0.0119019
7,1,0.00946045,0.00854492,0.0537109,0.0164795,0.0259399,0.0354004,0.0421143,0.0360107,0.0268555,0.043335,-0.0283813,0.0161743,0.0253296
7,2,0.000610352,0.0180054,0.0274658,0.0189209,0.015564,0.0222778,0.0357056,0.0372314,0.0305176,0.0326538,-0.0289917,0.0271606,0.0186157
7,3,0.00488281,0.010376,0.00671387,0.0177002,0.0210571,0.0387573,0.0363159,0.071106,0.0747681,0.0192261,-0.017395,0.00366211,0.0311279
7,4,-0.000915527,-0.0167847,0.017395,0.0210571,0.0234985,0.0317383,0.0299072,0.0521851,0.0436401,0.0222778,-0.0213623,0.00549316,0.0302124
8,0,0.00915527,0.0146484,0.0216675,0.0274658,0.039978,0.0332642,0.0344849,0.0308228,0.0463867,0.0192261,-0.0186157,0.0210571,0.0128174
8,1,0.090332,0.0125122,0.00610352,0.0708008,0.0280762,0.0238037,0.0186157,0.0653076,0.032959,0.0167847,-0.043335,0.0146484,0.0125122
8,2,0.00152588,0.00427246,0.0125122,0.0186157,0.0241089,0.0299072,0.0323486,0.0421143,0.039978,0.0888062,-0.0204468,0.00640869,0.0637817
8,3,-0.012207,0,0.00335693,0.0119019,0.0338745,0.039978,0.0958252,0.039978,0.0415039,0.0253296,-0.0341797,0.0112915,0.0088501
8,4,0.022583,0.00793457,0.0283813,0.0195312,0.0241089,0.0271606,0.0479126,0.0323486,0.039978,0.020752,-0.0323486,0.0320435,0.0109863
9,0,0.00183105,0.0100708,0.0424194,0.0531006,0.0415039,0.0485229,0.0247192,0.0466919,0.0283813,0.0811768,-0.0262451,0.00457764,-0.0244141
9,1,0.0158691,-0.0161743,0.0198364,0.0189209,0.027771,0.0100708,0.0500488,0.103149,0.03479,0.0180054,-0.0515747,0.0460815,0.0253296
9,2,0.0296021,0.00579834,0.0189209,0.00854492,0.015564,0.020752,0.0311279,0.0238037,0.00427246,0.0241089,-0.0256348,-0.00427246,0.00213623
9,3,0.0466919,0.0112915,0.0286865,0.0109863,0.0247192,0.0158691,0.0296021,0.032959,0.0314331,0.0250244,-0.0234985,-0.0244141,0.00610352
9,4,0.0393677,0.0375366,0.0296021,-0.0204468,0.0289917,0.0128174,0.0793457,0.0115967,0.0332642,0.0476074,-0.0390625,-0.00549316,0.0247192
10,0,0.0479126,0.0195312,-0.0286865,-0.0012207,0.0402832,0.0164795,0.0283813,0.015564,0.032959,0.00549316,-0.0247192,0.0149536,0.0189209
10,1,0.043335,0.0164795,0.0363159,-0.0125122,0.0106812,0.0222778,-0.0326538,0.0210571,0.0283813,0.0354004,-0.0338745,0.020752,0.00366211
10,2,0.0384521,0.0323486,0.00152588,0.0274658,-0.0231934,0.0372314,0.00976562,0.00793457,0.0198364,0.0363159,-0.0146484,0.0817871,-0.00366211
10,3,0.0253296,0.0088501,-0.00701904,0.0119019,0.0247192,0.0286865,0.0259399,0.0137329,0.0335693,0.0369263,-0.0268555,0.00640869,0.00915527
10,4,0.0253296,0.0747681,0.0131226,0.0186157,0.0128174,-0.00854492,0.039978,-0.0170898,0.0302124,0.0299072,-0.0192261,0.0234985,0.0177002
11,0,0.0146484,0.015564,0.0131226,0.0302124,0.0204468,0.0238037,0.0253296,0.0204468,0.0482178,0.032959,-0.0222778,0.0112915,0.0262451
11,1,-0.0137329,0.0479126,0.0228882,0.0161743,0.0125122,0.0186157,0.0323486,0.0244141,0.0186157,0.0198364,-0.0308228,0.0280762,0.0146484
11,2,-0.0289917,0.0192261,0.0421143,0.0143433,0.0253296,0.0170898,0.0292969,0.0418091,0.000915527,0.045166,-0.0231934,0.0238037,0.020752
11,3,-0.0100708,0.00762939,0.0317383,0.0335693,0.0170898,0.0299072,0.0354004,0.078125,0.0161743,0.043335,-0.0366211,0.0161743,0.0164795
11,4,-0.0689697,0.0115967,0.0195312,0.00823975,0.0125122,0.0198364,0.0393677,0.0759888,-0.00946045,0.0286865,-0.0210571,0.027771,0.0131226
12,0,-0.0540161,0.0320435,0.0109863,0.0180054,0.0125122,0.0112915,0.043335,0.0601196,0.0183105,0.0274658,-0.0396729,0.00976562,0.0247192
12,1,0.0509644,0.0445557,-0.0216675,0.0765991,0.0283813,0.0161743,0.0906372,0.0192261,0.0149536,0.0930786,-0.0393677,0.000610352,0.0811768
12,2,0.0616455,0.0216675,-0.017395,0.020752,0.0274658,0.0158691,0.0436401,0.0308228,0.0222778,-0.00640869,-0.0338745,-0.00244141,-0.0259399
12,3,0.0479126,0.0112915,0.00457764,0.0115967,0.0183105,0.0201416,0.0366211,0.0177002,0.00915527,0.0119019,-0.0231934,0.00640869,0.0402832
12,4,0.0439453,0.0305176,0.00152588,0.0149536,0.0222778,0.0231934,0.0415039,0.0012207,0.0308228,0.0366211,-0.0360107,0.0234985,-0.0552368
13,0,0.0674438,0.0146484,0.0183105,0.0164795,-0.0012207,0.0253296,0.0357056,0.0012207,0.0271606,0.0390625,-0.0219727,0.0265503,0.0152588
13,1,0.0170898,0.000305176,0.0238037,0.00671387,0.0268555,0.0299072,0.017395,0.00244141,0.0189209,0.0195312,-0.0158691,0.0183105,0.0128174
13,2,0.0283813,0.0186157,0.0119019,0.00823975,0.0210571,0.0271606,0.0195312,-0.0250244,0.0323486,0.0247192,-0.0576782,0.00671387,0.00946045
13,3,-0.0140381,0.00946045,-0.00579834,0.020752,0.00915527,0.0131226,0.0244141,0.000305176,0.0460815,0.00854492,-0.0271606,0.0744629,0.00854492
13,4,0.0424194,0.0137329,0.00946045,0.0192261,0.0170898,0.0296021,0.0332642,0.0149536,0.0250244,0.0308228,-0.0228882,0.038147,0.0128174
14,0,0.0674438,0.0222778,0.0131226,-0.0131226,0.0234985,0.0134277,0.0592041,0.020752,0.017395,0.0354004,-0.0128174,0.010376,-0.0476074
14,1,0.0784302,0.0241089,0.0775146,0.0170898,0.020752,-0.0216675,0.0469971,0.0335693,0.0296021,0.0494385,-0.0323486,-0.00579834,0.0299072
14,2,0.0802612,0.0366211,0.027771,0.0390625,0.0238037,0.022583,0.00335693,0.0012207,0.0366211,0.0283813,-0.0244141,0.0146484,0.0198364
14,3,0.11261,0.0662231,0.027771,0.0170898,0.00793457,0.00854492,0.0253296,0.0448608,0.0445557,0.0241089,-0.0286865,0.00183105,0.00732422
14,4,0.0735474,0.0204468,0.0253296,0.0268555,0.0259399,0.00244141,0.0708008,0.0372314,0.0408936,0.0372314,-0.0668335,0.00244141,0.0112915
15,0,0.0793457,0.00579834,0.00274658,0.0100708,-0.0134277,0.0265503,0.0231934,-0.0268555,0.0350952,0.0363159,-0.032959,0.00976562,0.0170898
15,1,0.0662231,0.00762939,0.022583,-0.00152588,0.0189209,0.0198364,0.0100708,-0.0088501,0.0338745,0.0476074,-0.0442505,0.015564,0.0216675
15,2,0.0476074,-0.0247192,0.0186157,0.00946045,-0.0183105,0.0292969,0.0164795,0.0421143,0.0234985,0.0378418,-0.032959,0.0250244,0.020752
15,3,0.0549316,0.0482178,0.0140381,0.00762939,0.0360107,0.0274658,0.0149536,0.0622559,0.0271606,0.0253296,-0.0360107,0.00549316,0.0234985
15,4,0.0549316,0.0204468,0.00427246,-0.0183105,0.027771,0.0421143,-0.0442505,0.0317383,0.0143433,-0.0247192,-0.0292969,0.0210571,0.0146484
16,0,0.0222778,0.0140381,0.00732422,0.0241089,0.022583,0.00518799,0.0238037,0.0332642,-0.0372314,0.0106812,-0.032959,0.0491333,0.00732422
16,1,-0.0408936,0.0228882,0.00701904,0.0161743,0.0170898,0.0192261,0.0405884,0.0210571,0.0170898,0.0265503,-0.0344849,0.0344849,0.0210571
16,2,0.0424194,0.0198364,0.0314331,0.00305176,0.020752,0.0164795,0.0531006,0.0198364,0.0268555,0.0119019,-0.0250244,0.0415039,0.0259399
16,3,0.0289917,0.0256348,0.0534058,0.0283813,0.020752,0.0326538,0.0311279,0.0506592,0.0332642,0.0201416,-0.0308228,0.0183105,0.0305176
16,4,0.0439453,0.00244141,-0.0213623,-0.00427246,0.0128174,0.0164795,0.0299072,0.0537109,0.0323486,0.0411987,-0.0393677,0.0195312,-0.0314331
17,0,0.0418091,0.0152588,0.0146484,0.00946045,0.0201416,0.0112915,0.0305176,0.0375366,0.0161743,0.0241089,-0.0292969,0.0170898,0.00549316
17,1,-0.0238037,0.0131226,0.0204468,0,0.0183105,0.0183105,0.0650024,0.0482178,0.0326538,0.0604248,-0.00396729,0.0314331,0.0665283
17,2,0.0280762,0.0128174,-0.0390625,0.0152588,0.0198364,0.0463867,0.0244141,0.065918,0.0598145,0.0265503,-0.0439453,0.0372314,0.0183105
17,3,0.00183105,0.0210571,0,0.0115967,0.0195312,0.0305176,0.017395,0.0665283,0.0259399,-0.00152588,-0.0341797,0.038147,0.0253296
17,4,0.0259399,-0.0012207,0.017395,0.00579834,0.0274658,0.0262451,0.0161743,0.0344849,0.0317383,0.0161743,-0.0354004,0.0338745,0.0115967
18,0,0.0180054,0.0228882,0.0234985,0.0137329,0.0219727,0.017395,-0.00823975,0.0259399,0.0143433,0.0311279,-0.0241089,0.0280762,0.0167847
18,1,0.0115967,0.0183105,-0.0317383,0.0112915,0.0216675,0.0564575,0.00762939,0.00396729,0.0296021,0.0250244,-0.0125122,0.0302124,0.0164795
18,2,0.0234985,0.0234985,0.0271606,0.0100708,0.0253296,0.0845337,-0.000610352,0.00671387,-0.0140381,0.0198364,-0.0299072,0.0326538,0.015564
18,3,-0.00305176,0.0149536,0.0164795,0.0427246,0.0216675,0.0183105,0.0106812,0.0231934,0.0372314,0.0653076,-0.0338745,0.0183105,0.0137329
18,4,-0.00213623,0.0167847,0.00457764,0.0131226,0.0152588,0.0210571,0.000610352,0.0488281,0.050354,0.0247192,-0.043335,0.0286865,-0.012207
19,0,-0.0088501,0.0262451,0.00976562,-0.00274658,0.0448608,0.0268555,-0.0134277,0.0088501,0.0265503,0.0259399,-0.0311279,0.0341797,0.0204468
19,1,0.0180054,0.0262451,0.0231934,-0.0012207,0.010376,0.0201416,-0.017395,-0.0265503,0.0299072,0.0170898,-0.0695801,0.012207,0.0164795
19,2,0.0164795,0.0338745,0.0140381,0.0146484,0.027771,0.0241089,0.0158691,0.012207,0.0289917,0.0109863,0.00335693,0.0146484,0.0112915
19,3,0.017395,0.00854492,0.0158691,-0.00213623,0.00152588,0.022583,0.00701904,0.0271606,0.0244141,0.0119019,-0.0213623,0.0344849,0.0216675
19,4,0.0372314,0.0424194,0.017395,0.0152588,0.0250244,0.0149536,0.0115967,0.0213623,0.0222778,0.0140381,-0.0256348,0.0448608,0.0100708
20,0,0.00396729,0.0302124,0.00610352,0.0250244,0.0112915,0.0250244,0.0143433,-0.0164795,0.0524902,0.0244141,-0.0320435,0.0601196,0.0299072
20,1,-0.0396729,0.0256348,0.0158691,0.017395,0.0292969,0.0158691,0.0204468,0.0125122,0.0909424,0.0286865,-0.020752,0.045166,0.0170898
20,2,-0.0354004,0.0183105,0.0244141,0.0842285,0.0192261,0.015564,0.0701904,0.0204468,0.0274658,0.0793457,-0.0299072,0.0338745,0.0231934
20,3,-0.0302124,0.0137329,0.0326538,0.015564,0.00762939,0.012207,0.0234985,0.00274658,0.00610352,0.045166,-0.027771,0.0183105,0.010376
20,4,-0.0314331,0.00823975,0.0152588,0.00244141,0.0134277,0.0656128,0.0286865,0.0424194,0.0842285,0.020752,-0.0415039,0.0723267,0.0219727
21,0,-0.0552368,0.0198364,0.020752,0.0158691,0.0186157,0.0137329,0.027771,0.0305176,0.015564,0.0231934,-0.0222778,0.00518799,0.0473022
21,1,-0.0198364,0.010376,-0.0222778,0.0183105,0.0161743,0.0454712,0.0308228,0.0393677,0.0152588,0.0405884,-0.0344849,0.0222778,0.0219727
21,2,0.0552368,0.0231934,0.0335693,0.0100708,0.0204468,0.00946045,0.0204468,0.0204468,0.0308228,0.0476074,-0.038147,0.00335693,0.027771
21,3,0.0448608,0.0372314,0.0161743,0.0137329,0.0302124,0.0244141,0.0332642,0.0375366,0.0238037,0.0152588,-0.0363159,0.0256348,0.0256348
21,4,0.148926,0.0628662,0.0323486,0.0250244,0.0177002,0.0396729,0.0292969,0.0253296,0.0198364,0.0369263,-0.0305176,-0.00152588,0.0128174
22,0,0.133362,0.0268555,0.0299072,0.0100708,-0.00946045,-0.0012207,0.0143433,-0.0219727,0.032959,0.0323486,-0.017395,0.0167847,0.017395
22,1,0.0997925,0.0296021,0.0265503,0.00762939,0.0183105,0.00579834,-0.017395,0.0112915,0.0222778,0.0488281,-0.0537109,0.0457764,0.022583
22,2,0.0772095,0.0134277,0.0231934,0.0109863,0.0299072,0.0259399,0.0299072,0.0143433,0.00671387,0.0408936,-0.032959,0.0613403,0.00946045
22,3,0.0933838,0.0183105,0.0292969,0.00976562,0.015564,0.0143433,0.0167847,0.0378418,-0.00213623,0.0247192,-0.0262451,0.0598145,0.0125122
22,4,0.0619507,0.0262451,0.0247192,0.03479,0.00793457,0.0143433,0.0265503,0.0344849,0.0363159,0.0289917,-0.0320435,0.0302124,0.0335693
23,0,0.108337,0.0253296,0.0112915,0.0109863,0.0189209,0.0198364,0.0216675,0.0354004,0.022583,0.0292969,-0.0650024,0.0338745,0.0234985
23,1,0.0576782,0.032959,-0.0192261,0.0411987,0.0115967,0.0793457,0.0317383,0.0491333,-0.0354004,0.0390625,-0.0357056,0.00518799,0.0262451
23,2,0.0219727,0.0231934,0.0296021,0.0189209,0.0167847,-0.00274658,0.0286865,0.027771,0.0262451,0.0274658,-0.0357056,0.0338745,0.00946045
23,3,0.03479,0.00610352,0.0189209,0.022583,-0.00183105,0.0198364,0.0146484,0.0463867,0.00579834,0.0341797,-0.0161743,0.00366211,0.0119019
23,4,0.0216675,0.03479,0.0231934,0.0552368,0.00732422,0.0305176,0.0436401,0.0317383,0.0238037,0.00976562,-0.0283813,0.0375366,0.0158691
24,0,-0.000915527,0.0491333,0.0482178,0.0259399,0.0088501,0.039978,0.0259399,0.0192261,0.00671387,0.0167847,-0.0326538,0.0363159,0.0305176
24,1,-0.015564,0.0463867,0.0741577,0.0088501,0.0201416,0.0442505,0.0268555,0.038147,0.0244141,0.0405884,-0.0323486,0.0292969,0.0222778
24,2,-0.0463867,0.0476074,0.0354004,0.0427246,0.0143433,0.00274658,0.0112915,0.038147,0.015564,0.0186157,-0.0375366,0.0656128,0.022583
24,3,-0.0213623,0.0283813,0.000305176,0.0143433,0.020752,0.0183105,0.0210571,0.0341797,0.0271606,0.0201416,-0.0387573,0.0344849,0.0411987
24,4,0.0234985,0.0213623,0.0302124,0.0341797,0.0445557,0,0.0256348,0.0231934,0.0296021,0.0137329,-0.0231934,0.0170898,0.0241089
25,0,0.0717163,0.0201416,0.0222778,-0.0137329,0.0161743,0.0125122,0.0119019,0.0521851,0.0256348,0.0292969,-0.039978,0.0274658,0.0183105
25,1,0.0854492,0.0228882,0.0161743,0.0177002,0.0125122,-0.0213623,0.0286865,0.0527954,0.0143433,0.0180054,-0.0314331,0.0219727,0.0482178
25,2,0.045166,0.0292969,0.0149536,0.0149536,-0.00549316,0.0164795,0.0128174,0.0756836,-0.0408936,0.0256348,-0.039978,0.00854492,0.0439453
25,3,0.0320435,0.0357056,0.0222778,0.0244141,0.0244141,-0.0323486,-0.0170898,0.0579834,-0.0143433,0.0482178,-0.0460815,0.0241089,0.0396729
25,4,0.0219727,-0.0366211,0.0341797,0.0146484,0.0540161,-0.0112915,-0.00610352,0.0457764,0.0137329,0.0341797,-0.0360107,0.0259399,0.0430298
26,0,0.012207,0.020752,0.0363159,0.0512695,0.0192261,0.0177002,0.0201416,0.0622559,0.0216675,0.032959,-0.0268555,0.0317383,0.0354004
26,1,-0.0204468,0.0186157,0.0344849,0.0466919,0.00915527,0.0247192,-0.00518799,-0.032959,0.00427246,0.0241089,-0.0418091,0.0375366,0.0302124
26,2,-0.00183105,0.0259399,0.0210571,0.0241089,0.0177002,0.0152588,-0.0216675,0.0128174,0.015564,0.0457764,-0.0430298,0.0369263,0.0445557
26,3,0.0198364,0.0985718,0.0430298,0.0177002,-0.0292969,0.00518799,0.0198364,0.0384521,0.00427246,0.0314331,-0.0372314,0.0534058,0.0247192
26,4,0.020752,0.00396729,0.0180054,0.0125122,0.0158691,0.0106812,0.00305176,0.00854492,0.0149536,0.00549316,-0.032959,0.0634766,0.032959
27,0,0.0457764,0.0604248,0.0296021,0.000305176,0.0219727,0.00854492,0.00854492,0.0296021,0.0222778,0.0326538,-0.038147,0.0628662,0.039978
27,1,0.0875854,0.0442505,0.0250244,0.0219727,0.00366211,0.00610352,0.00457764,0.0213623,0.0170898,0.00762939,-0.0305176,0.0317383,0.0646973
27,2,0.062561,0.0326538,0.0201416,0.022583,0.00915527,0.0186157,0.015564,0.0195312,0.0125122,0.0317383,-0.0271606,0.0354004,0.0228882
27,3,0.0350952,0.0408936,0.0289917,0.0210571,0.00427246,0.017395,-0.0387573,0.0100708,0.0164795,0.0448608,-0.0253296,0.0552368,0.0189209
27,4,0.0372314,0.0253296,0.038147,0.0415039,0.0271606,0.0167847,0.00396729,0.0384521,0.0189209,0.0271606,-0.0283813,0.0497437,0.0326538
28,0,0.00793457,0.0360107,0.0317383,0.00274658,0.0299072,0.0231934,-0.00488281,-0.00427246,0.0180054,0.0360107,-0.0268555,0.0320435,0.0415039
28,1,0.0119019,0.0216675,0.0219727,0.0265503,0.0186157,0.0576782,0.0143433,0.00274658,0.0897217,0.0326538,-0.0271606,0.0170898,0.0244141
28,2,0.0244141,0.038147,0.0195312,0.0250244,0.0128174,0.0238037,0.0125122,-0.0289917,0.0146484,0.0317383,-0.0405884,-0.0296021,0.0292969
28,3,0.0537109,0.0320435,0.0369263,0.0259399,0.0204468,0.0222778,0.0161743,-0.0109863,0.0164795,0.0296021,-0.0289917,0.0161743,0.0128174
28,4,0.0790405,0.032959,-0.0228882,0.0259399,0.0183105,0.00732422,0.0253296,0.00976562,0.0231934,0.0195312,-0.0286865,0.0390625,0.0262451
29,0,0.0686646,0.0317383,0.00640869,0.0567627,0.0262451,0.0088501,-0.0354004,-0.0466919,0.00518799,0.0283813,-0.062561,0.0323486,0.0784302
29,1,0.0683594,0.0418091,0.00976562,0.0332642,0.072937,0.0250244,0.0112915,-0.00274658,0.0247192,0.0262451,-0.022583,0.0387573,0.0439453
29,2,0.0466919,0.057373,0.0195312,0.0265503,-0.00427246,-0.0119019,0.0128174,0.00366211,0.00640869,0.0189209,-0.0265503,0.00793457,0.0357056
29,3,0.0317383,0.0332642,0.020752,0.0213623,0.012207,0.0195312,0.0189209,-0.00366211,0.0265503,0.0311279,-0.0274658,0.0488281,0.0323486
29,4,0.0418091,0.0396729,0.00701904,0.0357056,0.0558472,0.022583,0.0149536,0.0308228,0.0268555,0.0204468,-0.0323486,0.0500488,0.0250244
30,0,0.0311279,0.0268555,0.0201416,0.0271606,0.0210571,0.0354004,0.0271606,0.0305176,0.010376,0.0256348,-0.0323486,0.010376,0.0390625
30,1,0.0146484,0.0280762,0.0216675,0.0350952,0.0219727,0.0140381,0.0308228,0.00976562,0.00854492,0.0378418,-0.0201416,0.0280762,0.0311279
30,2,-0.027771,0.0292969,0.032959,0.0143433,0.0210571,0.0161743,0.0115967,-0.0112915,0.0247192,0.0274658,-0.0341797,0.0152588,0.0540161
30,3,0.015564,0.050354,-0.000610352,0.022583,0.0350952,-0.0119019,0.0296021,0.0183105,0.0738525,0.0323486,-0.0317383,-0.0570679,0.0341797
30,4,0.0140381,0.0222778,0.038147,0.032959,0.0323486,0.0137329,0.0289917,0.0222778,0.0164795,0.0268555,-0.0128174,0.0274658,0.0363159
31,0,0.010376,0.0341797,0.0558472,0.0323486,0.0564575,0.00854492,0.0213623,0.0234985,0.0177002,0.0210571,-0.0262451,0.0164795,0.0750732
31,1,0.0219727,0.0384521,0.0549316,0.0280762,0.0234985,-0.00976562,0.0204468,0.0192261,0.0186157,0.043335,-0.0393677,0.00854492,0.0494385
31,2,0.0177002,0.0289917,-0.00579834,0.0271606,0.0283813,0.0308228,0.0296021,0.0378418,0.022583,0.0247192,-0.0390625,0.0213623,0.0311279
31,3,0.0234985,0.0271606,0.039978,0.0387573,0.0302124,0.0280762,0.0256348,0.0210571,0.0247192,0.0112915,-0.0247192,0.0234985,0.0350952
31,4,0.0177002,0.0378418,0.0238037,0.0180054,0.0152588,0.0195312,0.0170898,-0.00335693,0.0265503,-0.00762939,-0.0183105,0.0210571,0.0692749
32,0,-0.0201416,0.0411987,0.0250244,-0.010376,0.0363159,0.0195312,0.0164795,0.0631714,0.0143433,0.0244141,-0.0396729,0.0341797,0.0415039
32,1,0.03479,0.0247192,-0.0479126,0.0360107,0.0241089,0.0518799,0.0143433,0.0421143,0.0537109,-0.000610352,-0.0296021,0.0305176,0.0592041
32,2,0.0393677,0.0769043,0.0384521,0.0305176,0.0305176,0.0189209,0.0125122,0.0305176,0.00274658,0.0137329,-0.0228882,0.0509644,0.039978
32,3,0.015564,0.045166,0.0341797,0.0561523,0.027771,0.0265503,0.020752,0.0152588,0.0234985,0.0128174,-0.0302124,0.0549316,0.0430298
32,4,0.0204468,0.0430298,0.0302124,0.0311279,-0.0119019,0.0189209,0.0195312,0.055542,0.0134277,0.0180054,-0.0283813,0.050354,0.0564575
33,0,0.00976562,0.0213623,0.0360107,0.0375366,0.0274658,0.0247192,0.00579834,0.0466919,0.00457764,0.0186157,-0.032959,0.00854492,0.0372314
33,1,0.0100708,0.0341797,0.0289917,0.0344849,0.020752,0.0195312,-0.00610352,0.0338745,0.0125122,0.0167847,-0.0100708,0.0286865,0.0418091
33,2,-0.00915527,0.0228882,0.0335693,0.0271606,0.020752,0.0170898,-0.00335693,0.0592041,0.0228882,0.0222778,-0.00823975,0.0109863,0.0369263
33,3,-0.0238037,0.0241089,0.0262451,0.0344849,0.0247192,0.085144,-0.0152588,0.0143433,0.0463867,0.0244141,-0.0158691,-0.00579834,0.0375366
33,4,-0.0292969,0.0875854,0.0234985,0.0360107,0.0726318,0.0158691,-0.0292969,-0.032959,0.0231934,0.0192261,-0.0213623,0.0134277,0.0289917
34,0,-0.0442505,0.0280762,0.0262451,0.00640869,0.00396729,0.0228882,0.00457764,-0.0921631,0.0180054,0.0228882,-0.0152588,0.012207,0.0186157
34,1,-0.0735474,0.0286865,0.032959,0.0296021,0.0106812,0.0268555,0.0442505,-0.0186157,0.0247192,0.0198364,-0.0244141,0.0247192,0.0128174
34,2,0.000610352,0.015564,0.0305176,0.017395,0.0387573,0.0201416,0.0360107,-0.00366211,0.00671387,-0.0167847,-0.0296021,0.0424194,0.0244141
34,3,-0.0280762,0.0274658,0.0357056,0.0619507,0.0195312,0.0204468,0.0247192,-0.0405884,0.0137329,0.0125122,-0.0360107,0.0411987,0.0341797
34,4,0.0662231,0.03479,0.0213623,0.0274658,0.0186157,0.00854492,0.0341797,0.0119019,0.015564,0.0100708,-0.0262451,0.0494385,0.00579834
35,0,-0.00305176,0.0515747,0.0549316,0.0912476,0.0335693,0.0088501,-0.00305176,0.017395,0.0274658,-0.0259399,-0.0198364,0.0244141,0.0411987
35,1,0.0088501,0.0164795,0.0430298,0.020752,0.022583,0.0167847,0.0363159,-0.0387573,0.0366211,0.0320435,-0.0262451,0.0177002,0.0192261
35,2,0.00152588,0.0350952,0.0384521,0.0286865,0.0317383,0.0100708,0.0326538,-0.00671387,0.0656128,0.0115967,-0.0311279,0.0204468,0.0320435
35,3,0.0231934,0.0436401,0.00976562,0.0271606,0.0259399,0.0378418,0.00610352,0.00976562,0.0247192,0.0183105,-0.0250244,0.0134277,0.0344849
35,4,0.0689697,0.0247192,0.0292969,-0.0088501,0.0360107,0.020752,0.057373,0.00213623,0.0326538,0.0228882,-0.0231934,0.0140381,0.0219727
36,0,0.101624,0.0302124,0.0198364,0.0228882,0.0387573,0.0143433,0.0354004,-0.012207,0.0283813,0.0152588,-0.027771,0.0164795,0.0671387
36,1,0.090332,0.027771,0.0335693,0.0289917,0.0109863,0.0167847,0.0442505,0.0161743,0.0256348,0.020752,-0.0311279,0.022583,0.0396729
36,2,0.0769043,0.00427246,0.027771,0.0268555,0.0360107,0.043335,0.0439453,0.0332642,0.0201416,0.0140381,-0.0192261,0.0305176,0.0338745
36,3,0.0805664,0.0167847,0.0424194,0.0405884,0.0177002,0.0305176,0.0250244,0.0112915,0.0219727,0.00152588,-0.0234985,0.0140381,0.0378418
36,4,0.0344849,-0.0216675,0.0378418,0.0137329,0.0231934,0.0341797,0.0177002,0.00610352,0.0112915,0.0189209,-0.0189209,0.0146484,0.045166
37,0,0.0125122,-0.0244141,0.0180054,0.0378418,0.000915527,0.0296021,0.0167847,0.039978,0.0164795,0.0112915,-0.0289917,0.0216675,0.0268555
37,1,-0.00213623,0.0296021,0.0241089,0.0238037,0.0204468,0.0228882,0.0271606,0.0283813,0.0109863,0.0106812,-0.0183105,0.0161743,0.0378418
37,2,-0.0204468,0.0262451,0.0393677,0.0366211,0.0234985,0.0463867,0.0228882,-0.00579834,0.0106812,0.0177002,-0.0161743,0.0427246,0.0515747
37,3,-0.112915,0.0360107,0.0241089,0.0354004,0.00793457,0.032959,0.0186157,0.0198364,0.0228882,0.00823975,-0.012207,0.00457764,0.0344849
37,4,-0.0668335,0.0195312,0.0442505,0.0222778,0.0250244,0.0805664,0.0244141,0.00366211,0.00854492,0.0268555,-0.0210571,-0.0213623,0.0308228
38,0,-0.0637817,0.0280762,0.0274658,0.0305176,0.0201416,0.0143433,0.0158691,0.0665283,0.0314331,0.0180054,-0.0262451,-0.00305176,0.03479
38,1,-0.0698853,0.027771,0.0344849,-0.0283813,0.0128174,0.0299072,0.00915527,0.0238037,0.0177002,0.00762939,-0.0640869,0.00335693,0.00488281
38,2,0.06073,0.0183105,0.0195312,0.0567627,0.0204468,-0.000915527,0.0259399,0.0204468,0.0125122,0.0686646,-0.0186157,0.00427246,0.0592041
38,3,0.0970459,0.0390625,0.00640869,0.0271606,0.0299072,0.0259399,0.0372314,0.0247192,0.0201416,0.0497437,-0.0216675,-0.00244141,0.0518799
38,4,0.106812,0.032959,0.03479,0.0286865,0.0259399,0.0234985,0.0891113,-0.00610352,0.00823975,0.0457764,-0.0180054,0.00488281,0.027771
39,0,0.0982666,0.0250244,0.0317383,0.0238037,0.0344849,0.0152588,0.0421143,0.00732422,-0.0012207,0.0192261,-0.022583,0.00305176,0.0357056
39,1,0.0830078,0.017395,0.0292969,0.0177002,0.0317383,0.00671387,0.0430298,0.0265503,0.0335693,0.00244141,-0.020752,0.00671387,0.00244141
39,2,0.0460815,0.0222778,0.0146484,0.0479126,0.0167847,0.0234985,0.0302124,0.0375366,0.00396729,0.0100708,-0.0598145,0.0149536,0.0354004
39,3,0.0198364,0.0183105,0.0344849,0.0323486,0.0256348,0.0292969,0.0302124,-0.00640869,0.00183105,0.000610352,-0.0222778,0.0378418,0.0167847
39,4,0.0125122,-0.0106812,0.015564,0.0253296,-0.0143433,0.0146484,0.032959,0.0469971,0.0244141,0.0219727,-0.00701904,0.0283813,0.0170898
40,0,-0.00823975,0.0262451,0.00946045,0.0311279,0.0387573,0.043335,0.0250244,0.0167847,0.00518799,0.017395,-0.0012207,0.0125122,0.0289917
40,1,0.0152588,0.0161743,-0.0357056,0.0296021,0.0244141,0.0363159,-0.00213623,-0.00854492,0.0112915,0.010376,-0.020752,0.0228882,0.0234985
40,2,0.0259399,0.0369263,0.0262451,-0.00579834,0.0308228,0.0427246,0.0521851,0.0167847,0.00732422,0.0250244,-0.0308228,0.0152588,0.0250244
40,3,0.0442505,-0.0387573,0.0259399,0.0323486,0.0149536,0.0357056,0.0161743,0.00976562,0.015564,0.00793457,-0.0100708,0.0143433,0.03479
40,4,0.0384521,0.017395,0.0396729,0.0637817,0.0268555,0.0323486,0.0146484,0.00823975,-0.000915527,-0.022583,-0.0527954,0.0253296,-0.0115967
41,0,0.0390625,0.0222778,0.0170898,0.0323486,0.0500488,0.0338745,0.0219727,0.0476074,0.0292969,0.017395,-0.0170898,0.0247192,0.0363159
41,1,0.043335,0.0299072,0.0259399,0.0375366,0.055542,0.00732422,0.0180054,0.0219727,0.00549316,0.0112915,0.00457764,0.0189209,0.0305176
41,2,0.0268555,0.0183105,0.0469971,0.0302124,-0.0247192,0.0280762,0.0180054,-0.0149536,0.0128174,0.0210571,-0.0125122,0.017395,0.043335
41,3,0.0271606,0.0192261,0.0274658,0.0357056,0.0460815,0.0265503,0.03479,-0.0479126,0.0115967,0.00732422,-0.0170898,0.0323486,0.0177002
41,4,0.0320435,0.0164795,0.0183105,0.0570679,0.0323486,0.0299072,0.00671387,0.017395,0.00213623,0.00213623,-0.0283813,0.0308228,0.0314331
42,0,0.0210571,0.00305176,0.0265503,0.0326538,0.0216675,0.0772095,0.0369263,0.0128174,0.00488281,-0.00396729,-0.0253296,0.0271606,0.0454712
42,1,0.0152588,0.0189209,0.0189209,0.0271606,0.0283813,0.0253296,0.0415039,0.0231934,0.015564,0.010376,-0.0543213,0.0259399,0.0265503
42,2,0.0134277,0.0228882,0.0274658,0.0363159,0.0289917,0.0274658,0.00701904,0.0177002,0.0088501,-0.0088501,-0.0253296,0.0314331,0.0296021
42,3,0.00854492,0.0259399,0.0302124,0.0363159,0.0305176,0.020752,0.0344849,0.032959,-0.0109863,-0.00579834,-0.0167847,0.0213623,0.0210571
42,4,0.0152588,0.0152588,0.0189209,0.0311279,0.0274658,0.0350952,0.0390625,0.0216675,0.0216675,-0.0665283,-0.0189209,0.0302124,0.0274658
43,0,0.00335693,0.0195312,0.0302124,0.0308228,0.022583,0.032959,0.0308228,0.00518799,0.00762939,-0.0445557,-0.015564,0.0231934,0.0271606
43,1,-0.0387573,0.0250244,0.027771,-0.0186157,0.0296021,0.027771,0.010376,0.0378418,0.0137329,-0.0323486,0.00427246,0.0372314,0.0405884
43,2,0.0286865,0.0234985,0.012207,0.000610352,0.027771,-0.0338745,0.0299072,0.0289917,0.0112915,-0.00549316,-0.0219727,0.022583,0.0286865
43,3,0.0152588,0.0210571,0.0265503,0.0305176,0.03479,0.0299072,0.0408936,-0.00183105,0.00701904,-0.00183105,-0.0509644,0.0289917,0.0152588
43,4,0.00946045,0.0720215,0.0448608,0.0274658,0.0485229,0.0372314,0.0335693,0.00244141,-0.00579834,0.00793457,-0.00427246,0.00244141,0.0265503
44,0,0.017395,0.0283813,0.0430298,0.0396729,0.0195312,0.0357056,0.0338745,0.0363159,-0.00152588,0.0268555,-0.0140381,0.0308228,0.0201416
44,1,0.0146484,0.0164795,0.0512695,0.0262451,0.027771,-0.0265503,0.0375366,0.0143433,0.0283813,0.022583,-0.0167847,0.0494385,0.0317383
44,2,0.00915527,0.0183105,0.0216675,0.0335693,0.0265503,0.0457764,0.0308228,0.0189209,0.000915527,0.00457764,-0.0247192,0.012207,0.0350952
44,3,0.00457764,0.0149536,0.0198364,0.0305176,0.0268555,0.0357056,0.0894165,0.0411987,0.012207,0.0396729,-0.0100708,0.020752,0.0231934
44,4,0.000305176,0.015564,0.00427246,0.0302124,0.0378418,0.0274658,0.0338745,-0.00335693,0.0131226,0.0222778,-0.0164795,0.0369263,0.0152588
45,0,-0.00335693,0.015564,0.00366211,0.0396729,0.0302124,0.03479,0.0198364,0.0454712,-0.000610352,0.00610352,-0.0164795,0.0106812,0.038147
45,1,0.00274658,0.0228882,0.0152588,0.0390625,0.0143433,0.0387573,0.0271606,0.0292969,0.00762939,0.0283813,-0.0369263,0.0012207,0.0274658
45,2,-0.00518799,0.00671387,0.0128174,0.0296021,0.0115967,0.0350952,0.017395,0.039978,0.00732422,0.0198364,-0.0479126,0.0143433,0.0146484
45,3,-0.0296021,0.00488281,0.0344849,0.022583,0.0198364,0.0299072,0.0421143,0.0271606,0.00335693,0.0234985,-0.0128174,0.0195312,0.0268555
45,4,-0.0283813,0.0115967,0.020752,0.0238037,0.0213623,0,0.0292969,-0.0012207,0.0231934,0.0125122,-0.0189209,0.0283813,0.0216675
46,0,-0.0234985,-0.00274658,0.0241089,0.0299072,0.020752,0.0234985,0.0445557,0.0469971,0.0088501,0.0820923,-0.032959,0.0323486,0.0292969
46,1,-0.0177002,0.00946045,0.0201416,0.0259399,0.0274658,0.0790405,0.032959,0.0344849,0.0439453,0.0213623,-0.022583,0.0302124,0.00701904
46,2,0.0430298,0.0198364,0.00457764,0.0445557,0.0115967,0.0234985,0.0531006,0.0363159,0.012207,0.0234985,-0.0280762,0.0222778,0.00915527
46,3,0.0256348,0.0177002,0.0390625,0.0231934,0.00518799,0.0418091,0.0463867,0.0256348,0.0204468,0.0338745,-0.0219727,0.0219727,0.0244141
46,4,0.03479,0.0125122,0.0839233,0.00457764,0.0308228,0.0457764,0.0375366,0.0488281,0.0158691,0.0479126,-0.00823975,0.0238037,0.0244141
47,0,0.0204468,0.0280762,0.0274658,0.0360107,0.0311279,0.0442505,0.0268555,0.0366211,-0.000305176,0.0564575,-0.00976562,0.017395,0.00793457
47,1,0.0167847,0.0106812,0.045166,0.0308228,0.0402832,0.0363159,0.0332642,0.017395,0.0140381,0.0311279,-0.0311279,0.0357056,0.0201416
47,2,0.0177002,0.00152588,0.0131226,0.0170898,0.0305176,0.0326538,0.0436401,0.0595093,0.022583,0.0643921,-0.0186157,0.043335,0.0286865
47,3,0.0592041,0.00274658,0.0088501,0.0231934,0.0384521,0.0317383,0.0372314,0.0442505,0.0271606,0.0494385,-0.0170898,0.0958252,0.0286865
47,4,0.0491333,0.0231934,0.00427246,0.0326538,0.0238037,0.0228882,0.03479,0.0512695,0.0186157,0.0524902,-0.00823975,0.0195312,0.0244141
48,0,0.0119019,0.00579834,0.00427246,0.0213623,0.00762939,0.0442505,0.0463867,0.0683594,0.0384521,0.0567627,-0.0167847,0.0341797,0.0543213
48,1,0.0292969,-0.0149536,0.00946045,-0.0521851,0.0311279,0.0256348,0.0830078,0.0793457,0.0112915,0.0695801,0.0317383,0.0219727,0.0238037
48,2,-0.0375366,0.0189209,-0.00701904,-0.010376,0.0354004,0.0302124,0.0445557,0.045166,0.0149536,0.0741577,-0.0088501,-0.0109863,0.0177002
48,3,-0.0308228,0.0106812,-0.0115967,0.0186157,0.0283813,0.00762939,0.0378418,0.0332642,0.0366211,0.0469971,-0.0286865,-0.00305176,0.0280762
48,4,-0.0140381,-0.00518799,0.0106812,0.0189209,0.0204468,0.0283813,0.0436401,0.0515747,0.0247192,0.038147,-0.0152588,0.00549316,0.0189209
49,0,-0.0204468,0.00946045,0.00823975,0.012207,0.0250244,0.0265503,0.0167847,0.0201416,0.0134277,0.0759888,-0.0247192,0.012207,0.012207
49,1,-0.0311279,0.0204468,0.0759888,0.0256348,0.0271606,-0.0418091,0.0180054,0.0241089,0.0576782,0.0759888,-0.0143433,0.0283813,-0.0131226
49,2,0.0592041,0.015564,0.0201416,0.0244141,0.0531006,0.0213623,0.0140381,0.00457764,0.03479,0.072937,-0.0378418,0.0238037,0.00854492
49,3,0.0469971,0.0186157,0.0180054,0.0158691,-0.017395,0.0177002,-0.00518799,-0.00457764,0.0204468,0.0579834,0.0100708,0.03479,0.00549316
49,4,0.000915527,0.0216675,0.0100708,0.0228882,0.0393677,0.0219727,0.0100708,-0.000305176,0.0430298,0.0558472,0.00305176,0.010376,-0.00579834
50,0,0.112305,0.0244141,0.0140381,0.0390625,0.0201416,0.0320435,0.012207,-0.0216675,0.0344849,0.039978,-0.00915527,0.0137329,0.0253296
50,1,0.0726318,0.0201416,0.0326538,0.0112915,0.0213623,0.0228882,0.0601196,0.043335,0.0375366,0.0201416,-0.0234985,-0.0012207,-0.0109863
50,2,0.0714111,-0.00213623,0.0384521,0.0192261,0.0167847,0.0860596,0.0497437,0.0421143,0.0662231,0.0411987,-0.0210571,-0.0177002,0.00396729
50,3,0.065918,0.0137329,0.0140381,0.032959,0.0210571,0.0283813,0.0628662,0.0442505,0.0405884,0.0939941,-0.0106812,0.0164795,0.0616455
50,4,0.0448608,0.00793457,0.0344849,0.0189209,0.0897217,0.0418091,0.0234985,0.0457764,0.0308228,0.0466919,-0.0167847,0.0228882,0.0161743
51,0,0.0198364,0.0241089,0.0134277,0.0238037,0.0189209,0.0424194,0.0189209,0.0088501,0.0308228,0.0280762,-0.0112915,0.0534058,0.0109863
51,1,-0.000915527,0.00915527,0.0183105,0.00488281,0.0222778,0.0234985,0.0244141,0.00793457,0.0271606,-0.0247192,-0.0146484,0.0216675,-0.0152588
51,2,-0.00427246,0.0198364,0.0720215,0.0228882,0.0140381,-0.0268555,0.0274658,-0.0241089,0.0372314,-0.00488281,-0.0164795,0.0311279,0.00152588
51,3,-0.010376,0.0088501,-0.0384521,0.0219727,0,-0.00823975,0.0372314,0.0137329,0.0308228,0.00976562,-0.00701904,0.055542,-0.00549316
51,4,0.00488281,0.0497437,0.00701904,0.0411987,0.0195312,0.015564,0.0198364,0.0186157,0.0210571,-0.00762939,-0.0140381,0.00427246,0.0271606
52,0,0.0161743,0.0115967,-0.00366211,0.017395,0.0469971,0.012207,0.0268555,0.0189209,0.0109863,-0.000305176,-0.0183105,0.0146484,0.0100708
52,1,0.0820923,0.0286865,0.0161743,0.00671387,-0.0326538,0.0268555,0.0311279,0.0375366,0.0366211,0.0128174,-0.0198364,0.0302124,0.0112915
52,2,0.0756836,0.0189209,0.015564,-0.0143433,0.0314331,0.0204468,0.0363159,0.0424194,0.0216675,0.0244141,-0.0140381,0.032959,0.0195312
52,3,0.0341797,-0.0405884,0.0112915,0.0131226,0.0689697,0.010376,0.0302124,0.0570679,0.03479,0.00701904,-0.0137329,0.0537109,0.00732422
52,4,0.0286865,0.00762939,0.012207,0.0115967,0.0222778,0.0369263,0.015564,0.0454712,0.0695801,0.0140381,-0.0119019,-0.0170898,0.0146484
53,0,0.00915527,0.0146484,0.0146484,0.0302124,0.020752,0.0296021,0.0262451,0.0439453,0.0177002,0.0363159,-0.0158691,0.00671387,0.00671387
53,1,-0.0314331,0.0161743,-0.00396729,-0.00427246,0.0283813,0.0335693,0.0878906,0.0479126,0.0296021,-0.0338745,-0.0183105,-0.00183105,0.0653076
53,2,0.0143433,0.0253296,0.0262451,0.00915527,0.0259399,0.00518799,0.0289917,0.0405884,0.0283813,0.0204468,-0.0350952,-0.0109863,0.0106812
53,3,0.0335693,0.0198364,0.0241089,0.0250244,0.0180054,0.0299072,0.0299072,0.0311279,0.0366211,0.0146484,-0.0256348,-0.00305176,0.00610352
53,4,0.0158691,-0.00732422,0.00946045,0.0195312,-0.0274658,0.0314331,0.0332642,0.0302124,0.0247192,0.0137329,0.00518799,-0.0012207,-0.00427246
54,0,0.0354004,0.0109863,0.00976562,0.0436401,0.03479,0.0311279,-0.0286865,0.0357056,0.0311279,0.038147,-0.0177002,-0.00976562,0.0350952
54,1,0.0158691,0.0137329,0.0604248,0.0292969,0.027771,0.0210571,0.0424194,0.0137329,0.0228882,0.0109863,-0.0238037,-0.0152588,-0.00579834
54,2,0.0143433,-0.0115967,0.00579834,0.00610352,0.0231934,0.0308228,0.027771,0.0582886,0.0299072,0.000610352,-0.0350952,-0.0149536,-0.00244141
54,3,0.00274658,0.0244141,0.00244141,0.0256348,0.0134277,0.0823975,0.0167847,0.0100708,0.0442505,0.0167847,-0.0268555,-0.0100708,-0.00152588
54,4,0.00274658,0.00366211,0.00701904,0.0256348,0.0161743,0.0354004,0.0311279,0.0289917,0.0308228,0.00183105,-0.0170898,-0.00579834,0.0442505
55,0,0.0390625,0.00213623,0.012207,0.0283813,-0.00366211,0.0265503,0.0314331,0.0265503,0.0308228,0.0134277,-0.015564,0.0436401,0.0201416
55,1,0.0378418,0.0204468,0.00640869,0.0183105,0.0234985,0.0296021,0.043335,0.0476074,0.0375366,0.017395,-0.0292969,0.0219727,0.0143433
55,2,0.0292969,0.0186157,0.0363159,0.00671387,0.0238037,0.0238037,0.0296021,0.0363159,0.0149536,0.0558472,-0.0253296,0.0149536,0.039978
55,3,0.0314331,0.0195312,0.0241089,0.0180054,0.0280762,-0.00427246,0.0378418,-0.00335693,0.0424194,0.00854492,-0.0164795,0.0576782,0.0131226
55,4,0.00671387,0.0198364,0.0100708,0.0189209,0.0289917,0.0268555,0.0494385,0.0524902,0.0177002,0.000915527,-0.0262451,0.027771,0.0192261
56,0,0.0192261,0.00640869,0.00274658,0.0140381,0.0512695,0.0195312,0.0259399,0.0921631,0.0476074,0.00976562,-0.0216675,0.0213623,0.0234985
56,1,0.0228882,0.00762939,0.0137329,0.0167847,0.0286865,0.0158691,0.0344849,0.0396729,0.0292969,0.0143433,-0.0387573,0.0256348,0.0167847
56,2,-0.00732422,0.015564,0.03479,0.00946045,0.0241089,0.0338745,0.0280762,0.055542,0.0396729,0.0283813,-0.0540161,0.0408936,0.00244141
56,3,-0.00793457,0.0305176,-0.039978,0.0164795,0.0228882,0.067749,0.03479,0.0543213,0.0372314,0.0268555,-0.0228882,0.0549316,0.0158691
56,4,0.00488281,0.0183105,0.022583,0.0177002,0.0164795,0.0180054,0.0259399,0.0189209,0.0387573,0.0314331,-0.0265503,0.0357056,0.0305176
57,0,0.00793457,0.0140381,0.0216675,0.00701904,0.0262451,0.038147,0.0289917,0.0106812,0.0125122,0.015564,-0.0201416,0.0744629,0.00488281
57,1,-0.00366211,0.0137329,0.0256348,-0.00305176,0.0128174,0.0180054,0.00488281,0.0476074,0.0241089,0.0323486,-0.0247192,0.0454712,-0.0485229
57,2,-0.00244141,0.0152588,0.0256348,0.00701904,0.0131226,0.0167847,0.0152588,0.0546265,0.0210571,0.0186157,-0.0247192,0.0195312,0.0314331
57,3,0.00793457,-0.0448608,0.0088501,0.0219727,0.0650024,0.0280762,-0.00976562,-0.00305176,0.0219727,0.0186157,-0.0253296,0.0125122,0.0320435
57,4,-0.0320435,0.0106812,0.0271606,0.0485229,0.0143433,0.0192261,0.0134277,0.0445557,0.0292969,0.0292969,-0.027771,0.00823975,0.0234985
58,0,0.00305176,0.00946045,0.0222778,0.0210571,0.0320435,0.0222778,0.00671387,0.0860596,0.0244141,0.0189209,-0.0531006,0.0177002,0.022583
58,1,0.012207,0.0161743,0.0222778,0.0271606,0.0137329,0.0216675,0.0219727,0.0360107,0.0192261,0.0323486,-0.0234985,0.0183105,-0.0134277
58,2,0.010376,0.0192261,0.0344849,0.0289917,0.0170898,0.032959,0.00823975,0.0201416,0.0299072,0.0283813,-0.0161743,0.0326538,0.00640869
58,3,0.00305176,0.012207,-0.0280762,0.0158691,0.00213623,0.0668335,0.00152588,0.0488281,0.032959,0.0253296,-0.038147,0.0149536,0.020752
58,4,0.00518799,0.0140381,0.0088501,-0.00427246,0.0158691,0.0585938,0.0296021,0.0320435,0.0582886,0.038147,-0.0259399,0.0268555,0.0161743
59,0,0.0195312,0.0250244,-0.055542,0.00946045,0.0250244,0.03479,0.0213623,0.0299072,0.0198364,0.0280762,-0.0259399,0.0296021,0.00488281
59,1,-0.0512695,0.050354,0.00518799,0.0128174,0.00579834,0.0137329,0.0332642,0.0292969,0.0250244,0.0439453,-0.0180054,0.0387573,0.0192261
59,2,0.0106812,-0.03479,-0.00488281,-0.0204468,-0.0384521,0.00946045,0.022583,0.0469971,0.0323486,0.0350952,-0.0256348,0.0332642,0.00518799
59,3,0.0137329,0.0131226,-0.00335693,0.00854492,0.012207,0.0161743,0.0323486,0.0305176,0.0286865,0.101929,-0.0238037,-0.000610352,-0.00427246
59,4,0.062561,0.0231934,0.0100708,0.00518799,0.0189209,0.0164795,0.0289917,0.00976562,0.0366211,0.0314331,-0.0292969,0.0820923,0.0167847
60,0,0.124817,-0.017395,0.0137329,0.0134277,-0.0421143,0.015564,0.0265503,-0.0286865,0.0247192,0.0317383,-0.0238037,0.0219727,0.0244141
60,1,0.116577,0.0280762,0.0131226,0.00244141,-0.0170898,0.0344849,0.0189209,-0.0259399,0.0292969,0.0317383,0.000305176,0.0158691,0.0170898
60,2,0.167236,0.0274658,0.00366211,0.0100708,0.0271606,0.0210571,0.0149536,-0.020752,0.0335693,0.039978,-0.0128174,0.0115967,0.00488281
60,3,0.0942993,0.0195312,0.0195312,0.0119019,0.0228882,0.0262451,0.0228882,-0.0363159,0.0280762,0.0186157,0.0180054,0.0387573,0.0167847
60,4,0.0973511,0.0189209,0.032959,0.0204468,0.0100708,0.0427246,0.0408936,0.00976562,0.0198364,0.032959,-0.0296021,0.0363159,0.0109863
61,0,0.111389,0.00976562,0.0241089,0.00549316,0.000610352,0.0228882,0.0216675,0.0280762,0.0177002,0.022583,0.000915527,0.0289917,0.0219727
61,1,0.0463867,-0.0109863,0.0134277,0.0158691,0.00732422,0.0219727,0.0259399,0.0152588,0.0372314,0.0146484,-0.0286865,0.0738525,0.0134277
61,2,0.0454712,0.0250244,-0.0128174,0.00579834,0.0088501,0.0238037,0.0341797,0.0149536,0.0427246,0.0439453,-0.0332642,0.0216675,0.039978
61,3,0.0299072,0.0259399,0.0543213,0.0186157,0.0143433,0.00335693,0.0164795,0.0134277,-0.00823975,0.0265503,-0.0262451,0.0259399,0.0253296
61,4,0.0372314,0.0247192,0.0244141,0.00671387,-0.00793457,0.0146484,0.0210571,0.0344849,0.0445557,0.0268555,-0.0274658,0.017395,0.0320435
62,0,0.0396729,0.0247192,0.022583,0.00732422,0.0158691,0.00305176,-0.00762939,0.00518799,0.0448608,0.0317383,-0.0238037,0.0314331,0.0448608
62,1,0.0265503,0.0375366,0.00366211,0.0152588,0.0253296,0.0308228,0.0131226,-0.017395,0.0302124,0.0219727,-0.057373,0.0106812,0.0219727
62,2,0.0350952,0.0228882,0.0588989,-0.00427246,0.020752,0.0125122,0.0192261,0.0274658,0.027771,0.0112915,-0.027771,0.0210571,0.0323486
62,3,0.0253296,0.0537109,-0.0115967,0.0146484,0.0610352,0.0198364,0.0100708,0.0213623,0.0296021,0.0152588,-0.0283813,0.0158691,0.00640869
62,4,0.00854492,0.00976562,0.00579834,0.0143433,0.0180054,0.0119019,0.00793457,0.0341797,0.0704956,0.0357056,-0.0308228,0.0390625,0.0137329
63,0,0.00396729,0.0234985,0.015564,0.0177002,0.0286865,0.0311279,0.0167847,0.0387573,0.0289917,0.0177002,-0.0286865,0.0250244,0.00823975
63,1,0.0106812,0.0201416,0.0100708,-0.00183105,0.0149536,-0.0198364,0.0271606,0.0283813,0.0439453,0.043335,-0.0360107,0.00946045,-0.00213623
63,2,0.0112915,0.027771,0.0201416,0.0146484,0.0161743,0.0183105,0.0265503,0.0274658,0.0582886,0.0332642,-0.0280762,0.0817871,0.0308228
63,3,0.00152588,0.0265503,0.0222778,0.00457764,0.00762939,0.0192261,0.00701904,-0.00366211,0.0369263,0.0271606,-0.0189209,0.0366211,0.0222778
63,4,-0.0100708,0.0201416,0.0354004,0.00457764,0.015564,0.0213623,0.027771,0.0390625,0.0238037,0.0265503,-0.0350952,0.0378418,0.0479126
64,0,-0.0106812,0.0561523,0.0143433,0.0241089,0.00915527,0.0219727,0.0311279,0.0231934,0.0500488,0.0280762,-0.045166,0.0427246,0.0256348
64,1,0.0323486,0.03479,0.0283813,0.0570679,0.0128174,0.0317383,0.0616455,0.0482178,0.0335693,0.0762939,-0.0195312,0.0286865,0.0631714
64,2,-0.0546265,0.03479,0.0430298,-0.0463867,0.015564,0.0177002,0.0219727,0.0527954,0.0326538,0.0375366,-0.0418091,-0.00610352,0.0350952
64,3,0.0265503,0.0271606,0.0494385,0.0485229,-0.00335693,0.039978,0.0180054,0.0393677,0.0125122,0.0335693,-0.0485229,0.0125122,0.0286865
64,4,0.0167847,0.0292969,0.03479,0.0613403,0.0296021,0.0256348,0.0234985,0.055542,0.0283813,0.0350952,-0.0442505,0.0479126,0.0247192
65,0,0.0115967,-0.0222778,0.00579834,0.0134277,0.0476074,0.00335693,0.0213623,0.0509644,0.0292969,0.0576782,-0.0314331,0.022583,0.0140381
65,1,0.0302124,0.0222778,0.0109863,-0.0222778,0.0283813,0.0259399,0.0378418,0.0476074,0.0253296,0.0805664,-0.0338745,0.00244141,0.057373
65,2,0.017395,0.0454712,0.00640869,0.0323486,0.0268555,0.010376,0.0241089,0.0198364,0.015564,0.0344849,-0.0262451,0.0314331,0.0283813
65,3,0.00579834,0.0189209,0.0442505,0.0228882,0.00640869,-0.0292969,0.0363159,0.0387573,0.0378418,0.0280762,-0.0286865,0.0286865,0.0262451
65,4,0.0338745,0.00976562,-0.00488281,0.0134277,0.0152588,0.0204468,0.0238037,0.0369263,0.0296021,0.0366211,-0.0436401,0.0430298,0.010376
66,0,0.0335693,0.0149536,-0.00366211,0.0735474,0.00976562,0.0183105,-0.010376,0.0183105,0.0320435,-0.000915527,-0.0546265,0.0354004,0.0216675
66,1,0.0402832,0.0308228,0.00152588,0.0289917,0.0250244,0.0167847,0.00518799,-0.00823975,0.0271606,0.0830078,-0.0335693,0.0357056,0.0183105
66,2,0.0662231,0.0323486,0.00335693,0.0274658,0.015564,0.0088501,0.0244141,0.0186157,0.0125122,0.0234985,-0.0177002,0.0485229,0.00823975
66,3,0.0717163,0.0241089,0.00305176,0.0241089,0.00762939,0.00427246,0.0128174,0.0201416,-0.0259399,0.032959,-0.0442505,0.090332,0.0195312
66,4,0.0506592,0.0259399,0.0238037,0.0268555,0.0177002,0.0109863,0.0378418,-0.0167847,0.0262451,0.0265503,-0.03479,0.038147,0.0326538
67,0,0.0311279,0.0256348,0.0177002,0.0280762,0.0100708,0.0286865,0.0219727,0.0192261,0.00183105,0.012207,-0.0369263,-0.022583,0.0250244
67,1,0.0427246,0.0241089,0.00854492,0.0228882,0.0177002,0.0119019,0.0134277,0.0262451,0.00762939,0.0161743,-0.0424194,0.0338745,0.0241089
67,2,0.0466919,0.0238037,0.0250244,0.022583,0.0146484,-0.00579834,0.0128174,0.0204468,0.00732422,0.0286865,-0.043335,0.022583,0.0149536
67,3,0.0302124,0.0137329,0.0265503,0.0222778,0.0250244,0.00579834,0.0231934,0.0198364,0.0134277,0.0140381,-0.0344849,0.0372314,0.0378418
67,4,0.0228882,0.0210571,0.0265503,0.0192261,0.0164795,0.00732422,0.0219727,0.0231934,0.0320435,0.0241089,-0.0717163,0.0292969,0.0302124
68,0,0.0378418,0.0140381,0.0363159,0.0158691,0.0167847,0.0137329,0.0106812,0.0265503,0.0192261,0.093689,-0.0405884,0.0213623,0.0427246
68,1,0.0222778,0.0344849,0.0445557,0.0241089,0.0811768,0.0219727,0.022583,0.03479,-0.00366211,0.0250244,-0.0354004,0.0247192,0.0292969
68,2,0.0375366,0.0360107,0.0375366,0.0396729,-0.010376,0.0210571,0.00915527,0.0164795,0.0112915,0.0369263,-0.0198364,0.0317383,0.0170898
68,3,0.0192261,0.045166,0.0326538,0.0363159,0.0149536,0.0186157,0.00396729,0.0213623,0.0231934,0.0616455,-0.0274658,0.0305176,0.0274658
68,4,0.0396729,0.022583,0.0442505,-0.0393677,0.0128174,0.0317383,0.012207,0.0250244,0.0143433,0.0265503,-0.0311279,0.0411987,0.0466919
69,0,0.0415039,0.00640869,0.0256348,0.000915527,0.0299072,0.00152588,-0.0106812,0.0585938,0.0363159,0.0375366,-0.0421143,0.0250244,0.027771
69,1,0.0125122,0.0262451,0.0323486,0.00915527,0.0271606,0.0195312,0.0299072,0.0283813,0.0186157,0.0280762,-0.0314331,0.0360107,0.0494385
69,2,0.0296021,0.0213623,0.0335693,0.0311279,0.0186157,0.00335693,0.0231934,0.0299072,0.0134277,0.0238037,-0.0195312,0.0326538,0.045166
69,3,-0.00244141,0.0866699,0.0421143,0.0149536,0.0326538,0.0302124,0.0317383,0.00488281,0.0189209,0.0323486,-0.0296021,0.0415039,0.0302124
69,4,0.0296021,0.015564,0.0393677,0.0204468,0.017395,-0.0518799,0.0180054,0.0509644,0.0570679,0.0424194,-0.0311279,0.03479,0.0354004
70,0,0.012207,0.0650024,0.0521851,0.0280762,-0.0479126,0.0186157,0.032959,0.00793457,0.020752,0.0274658,-0.0289917,0.0332642,0.0317383
70,1,-0.00640869,0.0213623,0.0375366,0.0198364,0.0146484,0.0186157,0.0445557,0.00732422,0.0189209,0.0289917,-0.0234985,0.0177002,0.027771
70,2,-0.00427246,0.032959,0.0384521,0.0570679,0.0210571,0.0271606,0.0396729,-0.0106812,0.0161743,0.0457764,-0.0259399,0.0216675,0.00732422
70,3,-0.0604248,0.0354004,0.0421143,0.022583,0.0222778,0.00213623,0.0241089,0.00854492,0.0219727,0.0448608,-0.0354004,0.0244141,0.0265503
70,4,-0.012207,0.0360107,0.0317383,0.0280762,0.0131226,0.0100708,0.0250244,0.0167847,0.027771,0.0335693,-0.0259399,0.0222778,0.0268555
71,0,-0.0497437,0.0234985,0.0286865,0.0482178,0.0112915,0.0134277,0.06073,-0.00976562,0.0100708,-0.00152588,-0.0372314,0.0192261,0.0613403
71,1,0.0384521,-0.0219727,0.0262451,0.022583,0.0177002,0.0289917,0.0161743,-0.0115967,0.0195312,0.0283813,-0.0296021,0.0326538,0.0393677
71,2,0.062561,0.0387573,0.0305176,0.0253296,0.0170898,0.0283813,0.0183105,0.00793457,0.0198364,0.0161743,-0.0286865,0.0396729,0.00549316
71,3,0.0622559,0.0146484,0.0311279,0.00976562,0.0158691,0.00915527,0.00854492,0.0646973,0.0219727,0.0354004,-0.0238037,0.0198364,0.0280762
71,4,0.0646973,0.0323486,0.0375366,0.0100708,0.0177002,0.0158691,0.015564,0.0088501,0.0250244,0.0201416,-0.0292969,0.0253296,0.0387573
72,0,0.125427,0.0317383,0.0479126,-0.0317383,0.0180054,0.0115967,0.0244141,0.0296021,0.0170898,0.0213623,-0.0286865,0.027771,0.0286865
72,1,0.0494385,0.027771,0.0405884,0.00640869,0.0262451,0.0137329,0.0128174,0.027771,0.0134277,0.00396729,-0.0323486,0.0344849,-0.0195312
72,2,0.0524902,0.0415039,0.0317383,0.0189209,0.0286865,0.00976562,0.015564,0.00274658,0.0244141,0.039978,0.00976562,0.0183105,0.0476074
72,3,0.0357056,0.0698853,-0.0106812,0.0265503,0.0170898,0.00152588,0.0192261,0.0164795,0.0369263,0.0186157,-0.03479,0.0119019,0.0283813
72,4,0.0482178,0.0415039,0.00823975,0.010376,0.0125122,0.0100708,0.0137329,0.0219727,0.0183105,0.022583,-0.0189209,0.0296021,0.0390625
73,0,0.0442505,0.0396729,0.0164795,0.00549316,0.0177002,-0.000610352,-0.0219727,0.0366211,0.0228882,0.0183105,-0.0326538,0.0341797,0.0201416
73,1,0.0418091,0.0286865,0.0262451,0.0183105,-0.0088501,0.0125122,0.0247192,0.0228882,0.0228882,-0.0473022,-0.0357056,0.0360107,0.0259399
73,2,0.0494385,0.0180054,0.0271606,0.0619507,0.0244141,0.020752,-0.0189209,0.038147,0.0299072,-0.0128174,-0.0448608,0.0408936,0.0192261
73,3,0.0393677,0.0274658,0.000305176,0.0305176,0.0140381,0.0476074,0.0125122,0.0402832,0.0418091,0.0296021,-0.0247192,0.0231934,0.0262451
73,4,0.0323486,0.0216675,0.0378418,0.0283813,-0.0488281,0.00946045,0.0112915,0.0201416,0.0201416,0.0360107,0.00854492,0.0161743,0.0482178
74,0,0.0418091,0.0192261,0.0338745,0.0543213,0.0231934,0.00823975,0.00518799,0.0317383,-0.0204468,0.0222778,-0.0189209,0.0744629,0.0274658
74,1,0.0177002,0.0125122,0.0216675,0.0256348,0.0106812,0.015564,0.0314331,-0.0161743,0.017395,0.0247192,-0.0317383,0.0384521,0.0238037
74,2,0.00579834,0.0152588,0.0863647,0.0411987,0.0405884,-0.0482178,0.0238037,0.0283813,0.039978,0.0201416,-0.038147,0.0326538,0.0460815
74,3,0.00457764,0.0357056,-0.0213623,0.0442505,0.0244141,0.012207,0.0268555,0.0164795,0.0109863,0.0350952,-0.0244141,0.0570679,0.015564
74,4,-0.0378418,0.0439453,0.0146484,0.039978,0.0143433,0.0167847,0.0088501,0.0128174,0.0335693,0.022583,-0.0189209,0.0350952,0.0326538
75,0,0.00518799,0.0250244,0.0222778,0.017395,0.0109863,0.0146484,0.0119019,-0.0268555,0.0161743,0.0219727,-0.0234985,0.0402832,0.017395
75,1,-0.0137329,0.0296021,0.0350952,0.0183105,0.0143433,0.0265503,0.0119019,-0.0137329,0.0115967,0.03479,-0.0296021,0.0308228,0.0439453
75,2,0.00427246,0.0152588,0.0405884,0.0323486,-0.00579834,0.0210571,0.0183105,0.0238037,-0.0186157,0.0192261,-0.0283813,0.0405884,0.043335
75,3,0.0332642,0.0570679,0.0140381,0.022583,0.0146484,0.0250244,0.0158691,-0.00244141,-0.000915527,0.0140381,-0.00457764,0.0842285,0.0418091
75,4,0.0317383,0.039978,0.027771,0.0454712,0.0241089,0.0216675,0.00213623,0.0405884,0.0134277,0.010376,-0.0213623,-0.00335693,0.0482178
76,0,0.00427246,0.0421143,0.0289917,-0.017395,0.0238037,0.0238037,-0.0384521,0.0177002,0.0448608,0.0476074,0.000610352,0.00427246,0.0714111
76,1,-0.0262451,0.0344849,0.0366211,0.050354,0.0189209,0.0149536,0.00701904,0.0222778,0.0119019,0.0643921,-0.0466919,0.0119019,0.0311279
76,2,-0.0341797,0.0363159,0.00762939,0.0268555,0.0201416,0.0158691,-0.00183105,0.0152588,0.0109863,0.0436401,-0.0195312,0.0274658,0.0167847
76,3,-0.00732422,0.0265503,0.0445557,0.0671387,0.000915527,0.0259399,0.020752,-0.0354004,0.0341797,0.0112915,-0.0213623,0.0271606,0.0405884
76,4,-0.0201416,-0.0158691,0.0369263,0.0408936,0.0292969,0.0109863,0.0115967,0.000610352,0.0137329,0.00640869,-0.043335,0.03479,0.0289917
77,0,0.00427246,0.0210571,0.101318,0.0259399,0.0244141,-0.00518799,0.00549316,-0.0167847,0.0204468,0.00701904,-0.0292969,0.0375366,0.0558472
77,1,0.0296021,0.0259399,0.0271606,0.0405884,0.0250244,0.0152588,0.0515747,0.00579834,0.0317383,0.0210571,-0.0326538,0.0170898,0.0271606
77,2,0.111389,0.0354004,0.0228882,0.0378418,0.0311279,0.0186157,0.0137329,-0.00732422,0.012207,0.0308228,-0.03479,0.0244141,0.0119019
77,3,0.101318,0.0305176,0.0109863,0.0222778,0.0299072,0.0158691,0.0344849,0.00488281,0.0128174,0.0204468,-0.022583,0.0109863,0.0250244
77,4,0.108337,0.0183105,0.00549316,0.0320435,0.0296021,0.00244141,0.03479,0.0088501,0.00793457,0.0180054,-0.0228882,0.00396729,0.0354004
78,0,0.0991821,0.0244141,0.0170898,0.0396729,0.0332642,0.0262451,0.0201416,0.000915527,0.0167847,0.0238037,-0.0234985,0.0265503,0.0390625
78,1,0.0747681,0.0106812,0.0350952,0.0354004,0.0268555,0.0167847,0.0164795,0.0296021,0.00427246,0.0375366,-0.0210571,0.0198364,0.0552368
78,2,0.133667,0.0125122,0.0134277,0.00366211,0.032959,0.022583,-0.0180054,0.0314331,0.00732422,0.0579834,-0.0222778,0.0427246,-0.0292969
78,3,0.0494385,0.0189209,0.0186157,0.0372314,0.0286865,0.00671387,0.0210571,0.0326538,0.0152588,0.0289917,-0.0241089,0.0250244,0.0180054
78,4,0.0167847,0.0244141,-0.0463867,0.0299072,0.0189209,0.0274658,-0.0143433,-0.00305176,0.00457764,0.0265503,-0.0256348,0.0158691,0.0698853
79,0,0.0524902,0.0292969,0.0189209,0.0543213,0.0204468,0.0146484,-0.00488281,0.0213623,0.0186157,0.0210571,-0.0302124,0.0170898,0.0500488
79,1,0.0765991,0.0259399,0.0244141,0.0280762,0.00854492,0.0146484,0.0375366,0.0137329,0.0125122,0.0238037,-0.00366211,0.00854492,0.0469971
79,2,0.0491333,0.0302124,0.00366211,0.0286865,0.020752,0.0418091,0.0296021,-0.00152588,-0.0418091,0.0369263,-0.017395,0.0708008,0.0460815
79,3,0.0549316,0.0177002,0.00823975,0.0402832,0.00457764,0.0164795,0.0152588,-0.00549316,0.0186157,0.0265503,0.00488281,0.0384521,0.0292969
79,4,0.0881958,0.0643921,0.0241089,0.0421143,0.0177002,0.0204468,0.020752,0.0311279,0.0234985,0.0302124,-0.0372314,0.00183105,0.0469971
80,0,-0.00488281,0.0411987,0.0228882,0.0411987,0.0238037,0.0222778,0.0262451,0.0210571,0.00915527,0.0177002,-0.015564,0.0457764,0.0491333
80,1,0.038147,0.0387573,0.0323486,0.0274658,0.0393677,0.0268555,0.0186157,0.0268555,0.0183105,0.017395,-0.0262451,0.043335,0.0360107
80,2,0.00946045,0.0274658,0.0241089,0.0390625,0.0262451,0.0247192,0.0183105,0.0387573,0.0177002,0.0183105,-0.0192261,0.0378418,-0.0302124
80,3,0.0198364,0.0292969,0.071106,0.0177002,0.0222778,0.0210571,0.0241089,0.0241089,0.00366211,0.0198364,-0.0186157,0.0274658,0.0561523
80,4,0.0134277,0.0296021,0.0332642,0.0387573,0.0222778,0.0366211,0.00427246,0.00183105,0.00610352,0.0500488,-0.0265503,0.0100708,0.055542
81,0,0.0299072,0.0265503,0.0299072,0.0378418,0.0219727,0.0183105,-0.00244141,0.0396729,0.0152588,0.0115967,-0.0286865,-0.00244141,0.0250244
81,1,-0.00396729,0.0192261,0.00976562,0.038147,0.0241089,0.0183105,0.0134277,0.010376,0.0674438,0.0115967,-0.0106812,0.0753784,0.0228882
81,2,0.000915527,0.00152588,0.0228882,0.0442505,0.043335,0.0247192,0.0460815,0,0.0140381,0.0201416,-0.0131226,0.027771,0.0341797
81,3,0.00274658,0.0299072,0.0738525,0.0457764,0.0253296,0.0445557,0.00762939,0.00793457,0.0088501,0.0216675,-0.0100708,0.0244141,0.0292969
81,4,-0.00610352,0.0143433,0.0289917,0.0292969,0.0259399,0.00305176,0.0219727,0.0210571,0.0112915,0.0170898,-0.022583,0.0384521,0.0253296
82,0,0.00213623,-0.0109863,0.0292969,0.0317383,0.0454712,0.0323486,0.0280762,-0.00183105,0.0158691,0.00183105,-0.00610352,0.0439453,0.0357056
82,1,0.0354004,0.00671387,0.0421143,0.0326538,0.0469971,-0.00152588,0.0244141,-0.00152588,0.0109863,0.0283813,-0.0244141,0.0231934,0.022583
82,2,0.0445557,-0.00488281,0.0271606,0.0280762,-0.00762939,0.0112915,0.0195312,0.0320435,0.0253296,0.0180054,-0.0189209,0.00976562,0.00396729
82,3,0.0274658,0.0195312,0.0320435,0.0393677,0.022583,0.0372314,0.0289917,0.00823975,0.0137329,0.027771,-0.0241089,0.0241089,0.0262451
82,4,0.0308228,-0.039978,0.0344849,0.0256348,0.0588989,0.017395,0.012207,0.00549316,0.0247192,0.0189209,-0.022583,0.0283813,0.0305176
83,0,0.0244141,0.0238037,0.0430298,0.0341797,0.0335693,-0.00427246,0.0216675,0.0198364,0.00183105,0.0106812,-0.0213623,0.0204468,0.0320435
83,1,0.00244141,0.0180054,0.0265503,0.0268555,0.0390625,0.0109863,0.0820923,0.0210571,-0.00488281,-0.0149536,-0.0241089,0.0326538,0.0405884
83,2,-0.000915527,0.0314331,0.027771,0.0106812,0.039978,0.0250244,0.0195312,0.0344849,0.0170898,-0.0302124,-0.0344849,0.022583,0.0750732
83,3,0.0088501,0.0686646,0.0213623,0.0308228,0.032959,0.0546265,0.0195312,-0.000610352,0.0201416,0.00854492,-0.0265503,0.017395,0.0283813
83,4,-0.000915527,0.0320435,0.0274658,0.0323486,0.055542,0.0189209,0.0158691,0.0265503,0.0204468,0.00213623,-0.0088501,-0.012207,0.0228882
84,0,0.000610352,0.0799561,0.0238037,0.0335693,0.0363159,0.0262451,0.00579834,0.0323486,0.00762939,0.0106812,-0.0180054,0.00915527,0.0256348
84,1,-0.00183105,0.0231934,0.022583,0.020752,0.0189209,0.0314331,-0.0167847,0.0283813,0.00762939,0.00762939,-0.0204468,-0.0125122,0.0778198
84,2,0.00244141,0.0167847,0.0311279,0.0338745,0.0360107,0.0372314,0.0280762,0.0460815,0.0262451,0.0125122,-0.0311279,-0.0219727,0.0213623
84,3,0.0250244,0.0152588,-0.022583,0.0195312,0.0262451,0.0421143,0.0335693,0.0357056,0.0134277,-0.000305176,-0.00793457,0.0280762,0.0180054
84,4,0.0170898,0.0149536,0.00579834,0.0299072,0.0338745,0.0354004,0.022583,0.0210571,0.0430298,0.00244141,-0.017395,0.00305176,0.0189209
85,0,0.0170898,0.0231934,0.0366211,0.0369263,0.0143433,0.0161743,-0.00976562,0.00823975,0.000610352,-0.00396729,-0.00335693,0.00396729,0.0344849
85,1,0.00457764,0.0112915,0.0344849,0.0311279,0.0210571,0.0326538,0.0427246,0.0292969,0.00671387,0.00793457,-0.0134277,-0.000610352,0.0143433
85,2,0.0234985,0.0170898,0.0427246,0.0296021,0.03479,0.0332642,0.0283813,0.0366211,-0.00518799,0.00915527,0.00213623,-0.00183105,0.0213623
85,3,0.0476074,0.00762939,0.0302124,0.0250244,0.0320435,0.0256348,0.0601196,0.045166,0.00335693,0.0125122,-0.00976562,0.0112915,0.0296021
85,4,0.0448608,0.017395,0.0402832,0.0332642,0.0262451,0.0823975,0.0247192,0.020752,0.012207,0.022583,-0.0158691,0.0170898,0.0265503
86,0,0.03479,0.0192261,0.0183105,0.020752,0.0595093,0.0219727,0.00732422,0.0375366,0.0158691,0.0268555,-0.0256348,0.000915527,0.0289917
86,1,0.0360107,0.00518799,0.0128174,0.0216675,0.0408936,0.0274658,0.0216675,0.0704956,0.0100708,0.0149536,-0.0192261,0.0302124,0.0241089
86,2,0.0408936,0.000305176,0.0317383,0.010376,0.038147,0.0128174,0.0378418,-0.0421143,0.0241089,0.0265503,0.0192261,0.0396729,0.0250244
86,3,0.0335693,0.0167847,0.0341797,0.0271606,0.0576782,0.0201416,0.0253296,-0.0161743,-0.00823975,0.0247192,-0.0186157,0.0405884,0.0216675
86,4,0.0271606,0.0152588,0.0323486,0.0421143,0.0238037,0.101013,0.0311279,0.0549316,0.0280762,0.0198364,-0.0146484,-0.0314331,0.0219727
87,0,0.0476074,0.0128174,0.0268555,0.0238037,0.0231934,0.022583,0.0271606,0.0189209,0.0238037,0.00976562,-0.0271606,0.0143433,0.00762939
87,1,-0.0656128,0.0167847,0.0268555,0.0308228,0.0299072,0.0994873,0.0439453,0.00762939,0.0161743,0.0238037,-0.022583,0.00549316,0.0262451
87,2,-0.0946045,0.0137329,0.0241089,0.0387573,0.0405884,0.0222778,0.0527954,0.0335693,0.0195312,-0.0241089,-0.0213623,0.0134277,0.0247192
87,3,-0.0357056,0.0445557,0.03479,0.0238037,0.0387573,0.0219727,0.0350952,0.0106812,0.0177002,-0.000305176,-0.0216675,0.038147,0.00396729
87,4,-0.0149536,0.0222778,0.0231934,0.022583,0.0341797,0.0354004,0.0335693,0.00671387,0.0192261,0.00762939,-0.00732422,0.0341797,-0.00244141
88,0,-0.0350952,0.0299072,0.0314331,0.0183105,0.0238037,0.027771,0.03479,0.0531006,0.0259399,0.0125122,-0.00946045,0.0256348,0.0195312
88,1,0.0198364,-0.00518799,0.0308228,0.038147,0.0692749,-0.0112915,0.0378418,0.0268555,0.0210571,0.000915527,-0.0149536,0.0338745,0.0192261
88,2,0.0213623,0.0125122,-0.00488281,0.0350952,0.0323486,0.0201416,0.027771,0.0183105,0.00732422,-0.0112915,-0.0189209,0.0515747,0.010376
88,3,0.0335693,0.0299072,0.000610352,0.0292969,0.0280762,0.0320435,0.0387573,0.0119019,0.0170898,0.0012207,-0.00579834,0.00396729,0.017395
88,4,0.039978,0.0231934,0.0582886,0.0344849,0.0421143,0.0869751,0.0219727,0.0439453,0.0183105,0.00549316,-0.0195312,0.00854492,0.0323486
89,0,0.0973511,0.0213623,0.0631714,0.0167847,0.0320435,0.0732422,0.0326538,0.0238037,0.027771,0.00457764,-0.017395,-0.000305176,0.0204468
89,1,0.139771,0.0357056,0.0454712,0.0354004,0.0387573,-0.0302124,0.0289917,-0.0216675,0.0228882,0.00152588,-0.00915527,0.000915527,0.0198364
89,2,0.112915,0.0198364,0.0268555,0.017395,0.0146484,0.00488281,0.0195312,0.0195312,-0.0289917,0.0256348,-0.0292969,-0.0283813,0.00579834
89,3,0.0863647,0.0689697,0.0326538,0.0238037,0.062561,0.0341797,0.0265503,0.0186157,0.0128174,0.0299072,-0.0195312,0.0271606,0.0192261
89,4,0.0622559,0.0149536,0.0183105,0.0231934,0.0280762,0.0250244,0.0500488,0.00854492,0.0140381,0.0393677,-0.012207,0.0149536,0.0201416
90,0,0.0521851,0.0109863,0.00701904,0.0149536,0.0302124,0.0323486,0.0286865,0.0158691,0.0335693,0.0210571,-0.0262451,-0.0244141,0.00366211
90,1,0.0186157,0.0256348,0.00183105,0.0222778,0.0210571,0.0299072,0.0100708,0.0360107,0.00244141,0.012207,-0.0170898,-0.015564,0.0137329
90,2,0.0177002,0.00854492,0.00640869,0.0100708,0.03479,0.0314331,0.0152588,0.0198364,0.0262451,0.0222778,0.010376,0.0088501,0.0341797
90,3,0.0183105,0.0134277,0.00152588,0.0189209,0.0439453,0.0473022,0.0280762,-0.0265503,0.0143433,0.0357056,-0.00579834,0.0210571,0.0314331
90,4,0.00762939,0.0137329,0.0183105,0.0320435,0.0204468,0.050354,0.0247192,0.039978,0.0198364,0.0234985,0.00793457,-0.00152588,0.00854492
91,0,0.0186157,0.0106812,0.0109863,0.0210571,0.0274658,0.0546265,0.0292969,0.0131226,0.0177002,0.0115967,-0.0131226,-0.00610352,0.0231934
91,1,0.0424194,0.00579834,-0.010376,0.0335693,0.0341797,0.032959,0.0390625,0.010376,0.017395,0.0195312,-0.0418091,0.00762939,0.0238037
91,2,0.00823975,0.0192261,0.0250244,0.0213623,0.0253296,0.0311279,0.0259399,0.0106812,0.0219727,0.0247192,-0.0259399,0.0338745,0.0109863
91,3,-0.00579834,0.00976562,0.0320435,0.0247192,0.0332642,0.0302124,0.0100708,0.0354004,0.0210571,0.0283813,-0.0286865,0.0201416,0.0320435
91,4,0.00213623,0.015564,0.0360107,0.0189209,0.0292969,0.0424194,0.0250244,0.0415039,-0.000610352,0.0247192,-0.0137329,0.0769043,0.0177002
92,0,-0.00183105,0.0228882,0.0247192,0.022583,0.0384521,0.0408936,0.0250244,-0.0100708,0.0198364,0.0146484,0.0137329,0.0189209,0.0088501
92,1,0.0222778,0.00823975,0.0259399,-0.0402832,0.0283813,0.03479,0.0378418,0.039978,0.0268555,0.0140381,-0.022583,0.0161743,0.0177002
92,2,0.00274658,0.0143433,0.0463867,0.0167847,0.0183105,0.0311279,0.0326538,-0.015564,0.0115967,0.0167847,-0.0473022,0.0274658,-0.00366211
92,3,0.00854492,0.0234985,-0.0192261,0.0283813,0.0280762,0.010376,0.0305176,0.0262451,0.0738525,0.0137329,-0.017395,-0.0436401,0.0186157
92,4,0.017395,0.0250244,0.0250244,0.0128174,0.0430298,0.0463867,0.0170898,0.0170898,0.0396729,0.0088501,-0.0161743,0.0198364,0.0125122
93,0,0.000305176,0.00854492,0.0204468,0.0280762,0.0253296,0.0646973,0.0485229,0.0454712,0.0430298,0.0158691,-0.00946045,-0.0442505,0.0167847
93,1,0.00915527,0.00823975,-0.00549316,0.0292969,0.0253296,0.0250244,0.0311279,0.0283813,0.0149536,0.0186157,-0.0164795,0.0125122,0.0152588
93,2,0.0146484,0.0265503,0.0256348,0.0338745,0.0137329,0.022583,0.00946045,0.00183105,0.038147,0.0204468,-0.00549316,-0.0369263,0.00793457
93,3,0.0100708,0.0106812,0.00488281,0.0219727,0.0326538,0.0308228,0.032959,0.0415039,0.0274658,0.0119019,-0.0253296,0.0262451,0.0137329
93,4,-0.000305176,0.043335,0.0268555,0.0238037,0.0299072,0.0296021,0.0424194,0.0445557,0.0161743,0.00701904,-0.010376,0.0106812,0.000305176
94,0,-0.00396729,0.00457764,0.0268555,0.0579834,0.0198364,0.0332642,0.0485229,0.0244141,0.0238037,0.0088501,-0.0161743,0.0259399,0.0137329
94,1,-0.00457764,0.0158691,0.0274658,0.0210571,0.0280762,0.0393677,0.0515747,0.0289917,0.0234985,0.0164795,-0.022583,0.0292969,0.0201416
94,2,-0.00488281,0.0161743,0.0244141,0.00549316,0.000610352,0.0357056,0.0271606,0.0622559,0.0305176,0.00640869,-0.0158691,0.00823975,0.0299072
94,3,0.00183105,0.020752,0.0259399,-0.0253296,0.0192261,0.032959,0.0366211,0.0500488,0.0311279,0.0128174,-0.0262451,0.00915527,0.0204468
94,4,0.00549316,0.0158691,0.0485229,0.0296021,0.0186157,0.0311279,0.0299072,0.03479,0.0180054,0.03479,-0.00640869,0.00244141,0.0100708
95,0,0.0302124,0.0234985,0.0326538,0.0222778,0.0384521,0.0259399,0.0308228,0.072937,0.0115967,0.0189209,-0.0534058,0.00762939,0.0137329
95,1,0.00488281,0.0201416,0.0195312,-0.00518799,0.0411987,0.022583,0.0305176,0.0756836,0.0106812,0.0125122,-0.0350952,-0.00976562,0.00274658
95,2,-0.00427246,0.0164795,0.0146484,0.0198364,0.0198364,0.0170898,0.0680542,0.0637817,0.027771,-0.0189209,-0.0216675,0.00854492,0.0546265
95,3,0.00274658,0.0195312,0.0350952,0.0140381,0.0360107,0.0186157,0.0201416,0.0439453,0.0234985,0.0183105,-0.0259399,-0.0201416,0.0265503
95,4,-0.00701904,0.00976562,0.015564,0.0170898,0.0308228,0.0369263,0.0274658,0.0671387,0.0198364,0.0140381,-0.010376,0.0268555,0.0204468
96,0,-0.0210571,0.0149536,0.0186157,0.0088501,0.032959,0.0283813,0.0146484,0.0250244,0.0164795,-0.00457764,-0.0161743,0.0317383,0.00183105
96,1,-0.0198364,0.0204468,0.020752,0.0195312,0.0219727,0.0253296,-0.0231934,0.0149536,0.0405884,0.0869751,-0.020752,0.0372314,-0.03479
96,2,-0.0506592,0.0149536,0.0177002,-0.0305176,0.0344849,0.0274658,0.0735474,0.0195312,0.0158691,0.0152588,-0.0213623,0.0302124,0.00732422
96,3,-0.00549316,0.00793457,0.0448608,0.0128174,0.0259399,0.0119019,0.0158691,-0.0439453,0.0292969,0.0332642,-0.0195312,0.0213623,0.0183105
96,4,0.0219727,0.0256348,0.0268555,0.0137329,0.0228882,0.0088501,0.0125122,0.0195312,0.0396729,0.0299072,-0.017395,0.0292969,0.00213623
97,0,0.0488281,0.0088501,0.0119019,-0.0549316,0.00793457,0.0302124,0.050354,0.00610352,0.0384521,0.0411987,-0.0189209,0.00457764,-0.00366211
97,1,0.0115967,0.00823975,0.0314331,0.0109863,0.0247192,0.0195312,0.0146484,0.00579834,0.0341797,0.0335693,-0.010376,-0.012207,0.0238037
97,2,-0.00183105,0.0134277,0.0177002,0.0164795,0.0198364,-0.0088501,0.015564,0.010376,0.00915527,0.0332642,-0.0204468,0.0195312,0.00549316
97,3,-0.0112915,0.0219727,0.00610352,0.0186157,0.0289917,0.0256348,0.0271606,0.00610352,0.00915527,0.0170898,-0.0299072,-0.00152588,0.00946045
97,4,-0.0180054,-0.00732422,0.0088501,0.00640869,0.0634766,0.0308228,0.0311279,0.0970459,0.0369263,0.0292969,-0.0222778,0.0299072,0.00488281
98,0,-0.0146484,0.0164795,-0.00549316,0.0204468,0.0210571,0.0418091,0.0378418,0.027771,0.022583,0.0189209,-0.0308228,0.0112915,0.0119019
98,1,0.0250244,0.0109863,0.00762939,0.0183105,0.0238037,0.0265503,0.0387573,0.0384521,0.0161743,0.0231934,-0.0161743,0.00427246,0.0198364
98,2,0.0674438,0.0204468,-0.00152588,0.0106812,0.000305176,0.0427246,0.0393677,0.0726318,0.0238037,0.0234985,-0.0326538,0.022583,0.0280762
98,3,0.0967407,0.00732422,0.00427246,0.012207,0.0161743,-0.0146484,0.0286865,0.0411987,0.0592041,0.0164795,-0.0302124,0.0280762,-0.00457764
98,4,0.113831,0.0247192,0.0244141,0.012207,0.0302124,0.0286865,0.113525,0.0588989,0.0344849,0.0393677,-0.0198364,-0.000305176,0.0338745
99,0,0.113831,0.0149536,0.0415039,0.0100708,0.0183105,0.0140381,0.0341797,0.0216675,0.0341797,0.00915527,-0.022583,0.00183105,0.0167847
99,1,0.104065,0.00518799,0.0299072,-0.0320435,0.0241089,0.0234985,0.0387573,0.0213623,0.03479,0.0115967,-0.0338745,0.00640869,0.0167847
99,2,-0.00579834,0.00396729,0.0357056,-0.0158691,0.0292969,0.0088501,0.0601196,0.0387573,0.0357056,0.0628662,-0.010376,0.0186157,0.0112915
99,3,0.0418091,0.00579834,0.0299072,0.0167847,0.000610352,0.0167847,0.0442505,0.0390625,0.027771,0.0274658,-0.0390625,0.0311279,0.0256348
99,4,0.0500488,0.0146484,0.0119019,0.00366211,0.0241089,0.0140381,0.0390625,0.0253296,0.0119019,0.0390625,-0.0247192,-0.0146484,0.0204468
100,0,0.0210571,0.0192261,0.0112915,0.0259399,0.0170898,0.0183105,0.0314331,0.0390625,0.0259399,0.0234985,-0.0308228,-0.015564,0.0274658
100,1,0.0161743,0.0256348,-0.0161743,0.00732422,-0.0109863,0.0177002,0.0354004,0.0454712,0.0289917,0.0247192,-0.032959,0.00427246,0.010376
100,2,0.0125122,0.0192261,-0.00854492,0.000915527,0.0170898,0.0198364,0.0308228,0.0192261,0.0192261,0.03479,-0.0274658,-0.00488281,0.0183105
100,3,0.00396729,0.0186157,0.000915527,0.0088501,0.0213623,0.0311279,0.00579834,0.038147,0.0253296,0.00823975,-0.0311279,0.00183105,0.0271606
100,4,0.00976562,0.0323486,0.015564,0.0125122,0.0109863,0.0430298,0.03479,0.0262451,0.0323486,0.0332642,-0.0109863,-0.00396729,0.020752
101,0,-0.00488281,0.00152588,0.0289917,0.0125122,-0.020752,0.010376,0.0268555,0.0616455,0.0341797,0.0320435,-0.0286865,0.0292969,0.0170898
101,1,0.0088501,0.0183105,0.0149536,0.0222778,0.0289917,0.0143433,0.0390625,0.0231934,0.0439453,0.0534058,-0.0289917,0.0228882,0.0292969
101,2,-0.0234985,-0.0256348,0.0146484,0.0253296,0.0238037,0.0308228,0.0213623,0.0540161,0.0317383,0.0372314,-0.0360107,0.0323486,0.0259399
101,3,-0.00152588,0.0137329,0.0326538,0.00976562,0.017395,-0.0292969,0.027771,0.0366211,0.0222778,0.0299072,-0.0247192,0.0100708,0.0183105
101,4,-0.0149536,0.0930786,0.0494385,0.0177002,0.0546265,0.022583,0.0302124,-0.0448608,0.0344849,0.0296021,-0.0320435,-0.000915527,0.0131226
102,0,-0.0106812,0.00488281,0.0134277,0.00579834,0.00823975,0.0231934,0.0308228,0.0491333,0.0323486,0.0369263,-0.0271606,0.00976562,0.0149536
102,1,0.00366211,0.020752,0.0109863,0.0274658,0.0186157,0.0177002,0.022583,0.0344849,0.0283813,0.0387573,-0.0250244,0.0256348,0.0283813
102,2,-0.0549316,0.0146484,-0.0012207,0.0167847,0.0177002,0.022583,0.0616455,0.0286865,0.0317383,0.015564,-0.0170898,0.0088501,0.0112915
102,3,-0.0411987,0.00701904,0.00915527,0.017395,0.0292969,0.0299072,0.015564,0.0283813,0.0259399,0.0231934,-0.0360107,0.0296021,0.0289917
102,4,-0.0125122,0.015564,0.00518799,0.0311279,0.0253296,0.0241089,0.0265503,0.0552368,0.0390625,0.0268555,-0.0131226,0.0247192,0.0210571
103,0,-0.0204468,0.0109863,0.00762939,0.0177002,0.0143433,0.0170898,0.0170898,0.0466919,0.0466919,0.0256348,-0.032959,0.0119019,0.0442505
103,1,-0.0250244,0.00823975,0.0250244,0.0143433,0.00640869,0.0161743,0.0231934,0.0198364,0.0463867,0.0326538,-0.027771,0.0140381,0.0152588
103,2,0.0747681,0.0198364,0.0411987,-0.0241089,0.00488281,0.0241089,-0.0170898,0.0588989,0.0271606,-0.00579834,-0.020752,0.0332642,0.0231934
103,3,0.103455,0.0244141,0.00946045,0.0088501,0.0143433,0.0231934,0.0283813,0.039978,0.0332642,0.0494385,-0.0213623,0.0109863,0.0387573
103,4,0.116882,0.0408936,0.0189209,0.0210571,0.0341797,0.0411987,0.00427246,0.00457764,0.0869751,0.0506592,-0.0238037,0.0222778,0.0195312
104,0,0.108337,0.0509644,0.0134277,0.0213623,0.0152588,0.0317383,0.0158691,0,0.0372314,0.0424194,-0.0314331,-0.0485229,0.0231934
104,1,0.0704956,0.0125122,0.0311279,0.00976562,0.00671387,0.0592041,0.03479,0.0186157,-0.00183105,0.0296021,-0.0296021,0.0320435,0.00640869
104,2,0.0344849,0.0436401,0.0106812,0.0119019,0.0134277,0.0238037,0.0238037,0.0131226,0.0213623,0.0375366,-0.0427246,0.0149536,0.00793457
104,3,0.0488281,0.0125122,0.00640869,0.0131226,0.0143433,0.0860596,0.0219727,-0.00610352,-0.0216675,0.0387573,-0.0164795,0.0476074,0.00488281
104,4,0.0534058,0.0164795,0.0204468,0.0137329,0.00274658,0.017395,0.032959,0.0274658,0.0271606,0.0942993,-0.0283813,0.0125122,0.000305176
105,0,0.0793457,0.0177002,0.000915527,0.00854492,0.0119019,0.0143433,0.03479,0.0390625,0.0411987,0.0332642,-0.0308228,0.0119019,0.0216675
105,1,0.0448608,0.00640869,0.0100708,0.00152588,0.0299072,0.0320435,0.00915527,0.0500488,0.022583,0.0424194,-0.0338745,0.0152588,0.0241089
105,2,0.045166,0.0177002,0.0152588,0.00976562,0.0219727,0.0152588,0.0274658,0.0457764,0.0531006,0.0384521,-0.0192261,0.0186157,0.0445557
105,3,0.0448608,0.0390625,0.0164795,0.0177002,-0.0335693,0.0350952,0.0183105,0.0790405,0.0457764,0.0311279,-0.0369263,0.0302124,0.0387573
105,4,0.0292969,0.010376,0.0152588,0.0137329,0.0143433,-0.00305176,0.0128174,0.093689,-0.0134277,0.0198364,-0.0372314,0.0231934,0.0466919
106,0,0.0265503,-0.00976562,0.0134277,0.0259399,0.0137329,0.022583,0.0238037,0.0845337,0.0131226,0.0262451,-0.0344849,0.0463867,0.0372314
106,1,0.0231934,-0.00671387,0.0192261,0.000610352,0.00488281,0.0167847,0.0378418,0.109253,0.0311279,0.0454712,-0.0320435,0.0476074,0.0430298
106,2,-0.000915527,0.00427246,0.0268555,0.0689697,0.020752,0.0189209,-0.0357056,0.0558472,0.022583,0.0250244,-0.0314331,0.0253296,0.0210571
106,3,-0.03479,0.000305176,0.0274658,0.0222778,0.00701904,0.0265503,-0.0253296,0.0134277,0.0189209,0.0241089,-0.0262451,0.0256348,0.0164795
106,4,-0.10437,0.0250244,0.0158691,0.00915527,0.0134277,0.0213623,0.0259399,0.00946045,0.0396729,0.0375366,-0.0628662,0.0350952,0.0183105
107,0,-0.0604248,0.0100708,-0.00976562,0.0100708,0.0115967,-0.00823975,0.0253296,0.00915527,0.0204468,0.0357056,-0.0296021,0.0164795,0.0183105
107,1,-0.0320435,-0.00152588,-0.00671387,0.0143433,0.0280762,0.0372314,0.0271606,-0.0088501,0.0372314,0.0411987,-0.0302124,0.0274658,-0.00976562
107,2,0.0457764,0.0109863,0.0344849,-0.000305176,0.0134277,0.0128174,0.0363159,-0.0421143,0.022583,0.0524902,-0.0289917,0.00457764,-0.00305176
107,3,-0.0213623,0.0341797,0.0296021,0.0109863,0.00244141,0.0271606,0.0192261,-0.0216675,0.0384521,-0.00244141,-0.0216675,-0.000610352,-0.0579834
107,4,0.0640869,0.0354004,0.012207,0.0137329,0.0204468,0.00946045,0.0241089,-0.00915527,0.0375366,0.0393677,-0.0271606,-0.0372314,0.0131226
108,0,0.0723267,0.0259399,0.00457764,0.0228882,0.0137329,0.00793457,0.0213623,0.00183105,0.0350952,0.0140381,-0.0283813,0.0753784,0.0112915
108,1,0.0192261,0.0537109,0,0.0250244,0.0201416,0.00488281,0.0137329,-0.00488281,0.0299072,0.0338745,-0.0320435,-0.000305176,0.0201416
108,2,-0.0247192,0.0292969,0.00488281,0.0149536,0.0158691,0.0112915,0.0286865,0.000610352,0.0183105,0.0320435,-0.0201416,-0.050354,0.0213623
108,3,0.00579834,0.0265503,0.00488281,0.0289917,0.0100708,0.0167847,0.00640869,0.00396729,0.0305176,0.0332642,-0.0183105,-0.00366211,0.03479
108,4,0.0588989,0.0192261,-0.00854492,0.00488281,0.00946045,0.027771,0.0201416,-0.000915527,0.0286865,0.0396729,-0.0314331,0.0289917,0.0222778
109,0,0.0756836,0.0241089,0.00610352,0.0119019,-0.000305176,0.0100708,-0.000915527,0.0170898,0.0326538,0.057373,-0.0152588,0.0198364,-0.00396729
109,1,0.0860596,0.0320435,-0.0183105,0.0296021,0.00854492,-0.00152588,-0.00274658,0.00549316,0.0265503,0.0515747,-0.0366211,0.015564,0.0341797
109,2,0.119934,0.0115967,0.0125122,-0.0546265,0.0137329,0.0289917,0.0421143,0.0115967,0.0354004,0.0338745,0.00671387,0.032959,0.0250244
109,3,0.0827026,0.0292969,0.00213623,0.0262451,0.0231934,0.022583,0.00183105,0.0128174,0.0405884,0.0177002,-0.0344849,0.032959,0.015564
109,4,0.0744629,0.0213623,0.015564,0.00946045,0.0527954,0.0198364,0.0283813,-0.0201416,0.0259399,0.0259399,-0.0247192,0.0308228,0.00701904
110,0,0.0683594,0.0344849,0.00610352,0.0170898,0.0375366,0.0271606,0.0189209,0.010376,-0.0198364,0.0384521,-0.0335693,0.0299072,0.0161743
110,1,0.100403,0.00274658,0.0115967,0.045166,0.0247192,0.0167847,0.0405884,0.00213623,0.027771,0.0354004,-0.0567627,0.0344849,0.0332642
110,2,0.0549316,0.0299072,0.00640869,0.0320435,0.0128174,0.0680542,0.0183105,0.0372314,0.0491333,0.0491333,-0.0390625,0.0308228,0.0338745
110,3,0.0262451,-0.0119019,0.0305176,0.0250244,0.000610352,0.0134277,0.0234985,0.0509644,0.0210571,0.0747681,-0.0305176,0.0338745,0.0460815
110,4,0.045166,0.0244141,0.0341797,0.0201416,0.0115967,0.0128174,0.0698853,0.0415039,0.0177002,0.0628662,-0.0250244,0.0415039,0.0299072
111,0,0.0454712,0.0302124,0.0296021,0.0448608,0.0115967,0.0201416,0.0234985,0.0189209,0.0268555,-0.0180054,-0.0436401,0.0357056,0.0308228
111,1,0.0439453,0.0292969,0.0201416,0.0390625,-0.00640869,0.0152588,0.0585938,0.0134277,0.0286865,0.0747681,-0.0445557,0.0363159,0.0344849
111,2,0.0402832,0.0357056,0.0305176,-0.000305176,0.0012207,-0.00152588,0.0408936,0.0482178,0.0262451,0.027771,-0.0396729,0.0378418,0.0256348
111,3,0.0463867,0.0219727,0.0286865,0.0180054,0.0247192,0.00427246,0.0195312,0.0262451,-0.00427246,0.0317383,-0.039978,0.032959,0.0350952
111,4,0.0402832,0.0335693,0.0323486,0.0198364,0.0302124,0.0192261,0.0292969,0.0436401,0.0219727,0.00701904,-0.0411987,0.0567627,0.0372314
112,0,0.038147,0.0216675,0.0189209,0.0183105,0.0088501,0.0256348,0.00427246,0.0424194,0.0305176,0.0170898,-0.0256348,0.0543213,0.0540161
112,1,0.0195312,0.00488281,0.0195312,0.00671387,0.0241089,-0.00335693,0.017395,0.0387573,0.0241089,0.0238037,-0.0424194,0.0311279,0.032959
112,2,0.0195312,0.0701904,0.0253296,0.0210571,0.0170898,0.0128174,0.0238037,0.0247192,0.0292969,0.0204468,-0.0213623,0.0283813,0.0384521
112,3,0.0332642,0.0311279,0.0338745,0.0201416,0.0131226,0.00274658,0.0109863,0.0390625,0.0234985,0.0128174,-0.0430298,0.0469971,0.0302124
112,4,0.0427246,0.0274658,-0.0189209,0.00579834,0.00762939,0.00701904,0.0134277,0.0286865,0.0665283,0.0384521,-0.0323486,0.0332642,0.0479126
113,0,0.017395,-0.0238037,0.0314331,0.0283813,0.00335693,0.0131226,0.0219727,0.0634766,0.0238037,0.0204468,-0.0344849,0.00213623,0.0326538
113,1,0.0112915,0.0259399,-0.00244141,0.0247192,0.0137329,0.0158691,0.0262451,0.0390625,0.0250244,0.0299072,-0.0192261,0.0112915,0.0112915
113,2,-0.0152588,0.0488281,0.0473022,0.0387573,0.015564,0.00396729,0.0140381,0.0344849,0.0146484,0.0268555,-0.0210571,0.0201416,0.0274658
113,3,-0.00732422,0.0314331,0.0445557,0.0289917,0.0259399,0.0115967,0.0213623,0.0332642,0.0109863,0.0186157,-0.0317383,0.0436401,0.0326538
113,4,-0.0411987,0.0674438,0.0210571,0.0204468,0.00152588,0.0390625,0.0228882,0.0784302,0.0265503,0.0344849,-0.027771,0.0311279,0.0454712
114,0,-0.00579834,0.0186157,0.0253296,0.0186157,0.0106812,-0.00457764,0.0100708,0.0784302,0.0201416,0.0283813,-0.000305176,0.0375366,0.0396729
114,1,0.00427246,0.0335693,0.0323486,0.0372314,0.017395,0.0204468,0.0338745,0.020752,-0.0238037,0.0241089,-0.0354004,0.0454712,0.0296021
114,2,0.0244141,0.0268555,0.0180054,0.0164795,0.00549316,-0.00671387,-0.00427246,0.0177002,0.0106812,0.0888062,-0.0286865,0.0296021,0.0430298
114,3,0.0457764,0.0161743,-0.00488281,0.0274658,0.0210571,0.0241089,0.038147,0.0424194,0.0326538,0.045166,-0.0265503,0.0222778,0.0430298
114,4,0.032959,0.0332642,0.0161743,0.0338745,0.0222778,0.020752,-0.00335693,0.0430298,0.0125122,0.0436401,-0.0335693,0.0405884,0.078125
115,0,0.015564,0.0274658,0.0143433,0.0112915,0.0192261,0.015564,0.0167847,0.0186157,0.0576782,0.0653076,-0.0338745,0.0128174,0.0372314
115,1,0.0320435,0.0405884,0.00915527,0.0231934,0.00549316,0.00671387,0.0320435,0.0201416,0.0216675,0.0543213,-0.0393677,0.0234985,0.00793457
115,2,0.0143433,0.0369263,0.0183105,0.038147,0.0195312,0.00488281,0.0109863,0.0012207,0.0247192,0.0595093,-0.022583,-0.000610352,0.0561523
115,3,0.00457764,0.0259399,0.0238037,0.0238037,0.0192261,-0.00183105,0.0195312,0.00579834,0.0378418,0.0274658,-0.0216675,-0.017395,0.0454712
115,4,0.0338745,0.0216675,0.0244141,0.0238037,0.020752,0.00671387,0.00488281,0.0161743,0.0149536,0.0332642,-0.0320435,0.038147,0.0424194
116,0,-0.0213623,0.0473022,-0.00640869,0.0289917,0.022583,0.0415039,0.0119019,0.0158691,0.0344849,0.0485229,-0.0378418,0.0518799,0.0131226
116,1,-0.0201416,0.0369263,0.0143433,0.0170898,0.0317383,0.00457764,-0.00244141,-0.0750732,0.0302124,0.0250244,-0.0320435,0.039978,0.0244141
116,2,-0.045166,0.027771,0.0234985,0.012207,-0.0164795,0.0128174,0.012207,-0.117798,0.0305176,0.0274658,-0.0384521,0.0320435,0.0341797
116,3,0.0308228,-0.00640869,-0.0115967,0.0192261,0.00640869,0.000610352,0.0152588,-0.0598145,0.0354004,0.0198364,-0.032959,0.0427246,0.0378418
116,4,0.0201416,0.00396729,0.0167847,0.0250244,0.0765991,0.00305176,0.0271606,-0.050354,0.0213623,0.0476074,-0.0204468,0.0213623,0.0335693
117,0,-0.012207,0.022583,0.0119019,0.0497437,0.0357056,0.000610352,0.0140381,-0.0396729,0.00976562,0.0244141,-0.020752,0.038147,0.0369263
117,1,0.0643921,0.00701904,0.0253296,0.0296021,-0.0088501,0.017395,0.0335693,-0.0588989,0.0262451,0.0210571,-0.0244141,0.0158691,0.0332642
117,2,0.0765991,0.0366211,-0.0366211,0.0231934,0.0158691,0.0112915,0.0256348,-0.027771,0.00976562,0.0143433,-0.0213623,0.0262451,0.0357056
117,3,0.0152588,0.0228882,0.0314331,-0.0274658,0.0210571,0.0262451,0.0543213,-0.0637817,0.0152588,0.0100708,-0.0186157,0.0302124,0.0216675
117,4,0.0305176,0.0109863,-0.0115967,0.022583,0.0140381,0.0595093,0.0299072,-0.039978,-0.0158691,0.0167847,-0.0271606,0.0430298,0.0201416
118,0,0.120544,0.017395,0.0372314,0.022583,0.0350952,0.0289917,0.0146484,-0.0494385,0.010376,0.017395,-0.0445557,0.0415039,0.0241089
118,1,0.0723267,0.0146484,0.0204468,0.0274658,0.0119019,0.020752,0.0323486,-0.020752,0.015564,-0.000305176,-0.0567627,0.0445557,0.03479
118,2,0.0366211,0.0421143,0.03479,0.0350952,0.0222778,0.0247192,0.0326538,-0.0146484,0.0268555,0.0143433,-0.0344849,0.0918579,0.0302124
118,3,-0.0250244,0.0274658,0.0341797,0.0216675,0.0338745,0.0335693,0.0320435,-0.0198364,0.0213623,0.0299072,-0.0305176,0.0308228,0.0286865
118,4,-0.0192261,0.00823975,0.0320435,0.0167847,0.0219727,0.0259399,0.00335693,0.0250244,0.0131226,0.010376,-0.0256348,0.0137329,0.0424194
119,0,0.0259399,0.0344849,-0.0115967,0.0180054,0.022583,0.0274658,0.0012207,0.00854492,0.0149536,0.00976562,-0.0338745,0.0311279,0.0335693
119,1,0.093689,0.0524902,0.0140381,0.0357056,0.0192261,0.0271606,-0.00396729,0.00366211,0.0119019,0.0720215,-0.0344849,0.0161743,0.0485229
119,2,0.127869,0.0350952,-0.0106812,0.0128174,0.0201416,0.0411987,0.0143433,0.020752,0.0219727,0.00213623,-0.0384521,-0.0012207,0.03479
119,3,0.154114,0.0326538,0.0234985,0.0177002,0.0189209,0.0210571,0.00305176,0.0265503,0.0198364,0.0128174,-0.0418091,0.0244141,0.0253296
119,4,0.184326,0.0894165,0.0189209,0.0311279,0.0460815,0.0106812,0.0204468,0.0149536,0.0265503,0.00946045,-0.0198364,0.032959,0.0372314
120,0,0.192566,0.0360107,0.0354004,0.0320435,0.0292969,0.00335693,0.0143433,0.0238037,0.0149536,0.0201416,-0.0201416,0.0396729,0.0271606
120,1,0.0967407,0.0372314,0.00518799,0.0302124,0.0213623,0.0170898,0.0125122,0.0369263,0.0201416,0,-0.0311279,0.0891113,0.0338745
120,2,0.0314331,0.0274658,0.0198364,0.0320435,0.0341797,0.0170898,-0.0164795,0.0268555,0.00762939,-0.0134277,-0.00152588,0.0576782,0.0881958
120,3,-0.0213623,0.0341797,0.0299072,0.00915527,0.0231934,0.00610352,0.0180054,0.00396729,0.0167847,0.0088501,-0.0192261,0.0662231,0.0219727
120,4,-0.0152588,0.0219727,0.0335693,0.0271606,0.0537109,0.022583,0.0204468,0.0335693,0.0100708,0.0228882,-0.0527954,0.0619507,0.0357056
121,0,0.0125122,0.0268555,0.0491333,0.0119019,0.0317383,0.0244141,0.0234985,0.0665283,0.0131226,0.0152588,0.00823975,0.0421143,0.0357056
121,1,0.00366211,0.0921631,0.0442505,0.0274658,-0.00701904,0.0308228,0.0170898,0.0186157,0.00305176,0.00488281,-0.0219727,0.00915527,0.0527954
121,2,0.0787354,0.0408936,0.0296021,0.00183105,0.0387573,0.0177002,0.0341797,0.0344849,0.0204468,0.0274658,-0.0238037,-0.000915527,0.022583
121,3,0.0802612,0.0259399,0.0189209,0.0354004,0.0344849,-0.0137329,0.027771,0.067749,0.00701904,0.0256348,-0.0302124,-0.000915527,0.0430298
121,4,0.0656128,0.0396729,0.0186157,0.0241089,0.0363159,0.0195312,0.0296021,0.0704956,0.00762939,0.0326538,-0.0283813,0.00488281,0.0238037
122,0,0.0350952,0.0253296,0.0265503,0.0268555,0.0302124,0.0302124,0.0344849,0.0601196,0.00854492,0.0244141,-0.0259399,0.00213623,0.0231934
122,1,0.0619507,0.022583,0.0250244,-0.0283813,0.0180054,0.0170898,0.0662231,0.0317383,0.017395,0.0210571,0.0250244,0.0137329,0.0201416
122,2,-0.0341797,0.0436401,0.0183105,0.0335693,0.0250244,0.0262451,0.0238037,0.0387573,0.0180054,0.0167847,-0.0274658,0.0250244,0.0308228
122,3,0.0183105,0.0653076,0.012207,0.0192261,0.0250244,0.0180054,0.00732422,0.0314331,0.0164795,0.0213623,-0.0213623,0.0192261,0.0244141
122,4,0.0164795,0.0283813,0.00762939,0.0283813,0.0332642,0.0842285,0.0238037,0.0164795,0.0216675,0.0125122,-0.0238037,-0.0158691,0.0183105
123,0,0.0338745,0.0308228,0.0274658,0.0256348,0.0274658,0.0161743,0.00915527,-0.00335693,0.0170898,0.0125122,-0.0216675,0.0323486,0.0201416
123,1,0.0360107,0.0247192,-0.0262451,0.0378418,0.0210571,0.0509644,-0.00457764,-0.0228882,0.00854492,0.017395,-0.0183105,0.0341797,0.0305176
123,2,0.015564,0.0161743,0.0341797,0.0271606,0.0283813,-0.00152588,-0.00457764,-0.00732422,0.0219727,-0.0296021,-0.00579834,0.03479,-0.0161743
123,3,0.0152588,0.0360107,0.0375366,0.0427246,0.0274658,0.0280762,0.00640869,0.015564,0.0714111,0.0119019,-0.0296021,-0.0192261,0.0320435
123,4,0.0115967,0.0286865,0.0354004,0.0259399,0.0665283,0.0210571,0.0198364,0.0561523,0.0186157,0.0259399,-0.0299072,0.0274658,0.0363159
124,0,0.0115967,0.0332642,0.0393677,0.0283813,0.0912476,0.0302124,0.00457764,0.0292969,0.010376,0.0137329,-0.0299072,0.0149536,0.0292969
124,1,0.055542,0.0228882,0.0393677,0.0485229,0.0366211,0.0189209,0.00701904,0.0140381,0.0100708,0.00305176,-0.0256348,0.0244141,0.0192261
124,2,0.0100708,-0.0164795,0.0424194,0.0283813,0.0332642,0.0177002,0.00366211,0.0466919,0.0238037,0.00762939,-0.0286865,-0.00915527,0.0372314
124,3,0.027771,0.0546265,0.0335693,0.0317383,0.020752,0.0335693,-0.0012207,0.0582886,0.0112915,0.00213623,-0.0106812,0.00579834,0.0289917
124,4,-0.0494385,0.0262451,0.0219727,-0.0167847,0.0274658,0.0323486,0.0167847,0.0457764,0.00549316,0.00976562,-0.0186157,0.00335693,0.0210571
125,0,0.015564,0.0366211,0.0473022,0.0222778,-0.00335693,0.00671387,0.0201416,0.0268555,0.0149536,0.0195312,-0.0491333,0.0463867,0.0112915
125,1,-0.00396729,0.0360107,0.0424194,0.0296021,0.0439453,0.0405884,0.0161743,0.0338745,0.00579834,0.0167847,-0.0601196,0.0476074,0.0289917
125,2,-0.00457764,0.0296021,0.0344849,0.0164795,0.0271606,0.0393677,0.0357056,0.00518799,0.0100708,0.0201416,-0.0167847,0.0338745,0.0183105
125,3,-0.0234985,0.0204468,0.0204468,0.0244141,0.0274658,0.0253296,0.0112915,-0.0106812,0.017395,-0.0100708,-0.0320435,0.0311279,0.0665283
125,4,-0.0106812,0.00274658,0.03479,0.0238037,0.0427246,0.03479,0.0280762,0.085144,0.010376,0.0332642,-0.0140381,0.0543213,0.0195312
126,0,0.0140381,0.0268555,0.0350952,0.0210571,0.0280762,0.0192261,0.0241089,0.0250244,0.00488281,-0.0216675,-0.0158691,0.0247192,0.0564575
126,1,0.0335693,0.010376,0.0238037,0.0204468,0.0390625,0.0454712,0.03479,0.0415039,0.0198364,0.0228882,-0.0213623,0.0137329,0.0314331
126,2,0.0418091,0.0100708,0.0341797,0.032959,0.0302124,0.0100708,0.0363159,0.0357056,0.0234985,0.0369263,-0.0283813,0.020752,0.0299072
126,3,-0.0473022,0.0247192,0.0180054,0.0323486,0.0183105,0.0396729,0.0238037,0.0469971,0.015564,0.0228882,-0.00671387,0.0250244,0.0302124
126,4,0.0167847,-0.0161743,0.0250244,0.0112915,0.0588989,0.0302124,0.03479,0.0421143,0.0164795,0.0338745,-0.0228882,0.0274658,0.0222778
127,0,0.0222778,0.0247192,0.0378418,0.0274658,0.0375366,0.0302124,0.0384521,0.0314331,0.0149536,0.0192261,-0.0183105,0.0665283,0.0198364
127,1,-0.00579834,0.0308228,0.0234985,0.0335693,0.0253296,0.0418091,0.0384521,0.0546265,0.020752,-0.0106812,-0.0186157,0.027771,0.06073
127,2,0.0268555,0.0292969,0.0219727,0.0222778,0.0231934,0.0927734,0.0369263,0.0442505,-0.0448608,0.0253296,-0.0238037,0.0308228,0.0158691
127,3,0.0143433,0.0305176,0.0344849,0.0274658,0.0326538,0.020752,0.0283813,0.0610352,0.000610352,-0.0268555,-0.0189209,0.0494385,-0.0140381
127,4,0.00976562,0.0213623,0.0448608,0.0372314,0.0265503,0.0305176,0.0213623,0.0314331,-0.00213623,0.0125122,-0.0299072,0.0286865,0.0241089
128,0,0.0140381,0.022583,0.0216675,0.0335693,0.0405884,0.0253296,0.0274658,0.0372314,0.00427246,-0.0119019,-0.0213623,0.0262451,0.0186157
128,1,0.000305176,0.0222778,0.0250244,0.0280762,0.0390625,0.0241089,0.0231934,0.0909424,0.0247192,0.00518799,-0.0134277,0.0228882,0.027771
128,2,-0.0109863,0.022583,0.0253296,0.0305176,0.0344849,0.0234985,0.0238037,0.000915527,0.010376,-0.00274658,-0.0250244,0.0341797,0.0241089
128,3,-0.0149536,0.0704956,0.0552368,0.0259399,0.0765991,0.0167847,0.0125122,0.0708008,0.0314331,0.0167847,-0.0204468,0.038147,0.00366211
128,4,-0.0149536,0.0192261,0.0445557,0.0204468,0.0164795,0.0231934,0.0192261,0.03479,0.00549316,0.000305176,-0.0256348,0.0323486,0.0302124
129,0,0.0265503,-0.000610352,0.0332642,0.0680542,0.0338745,0.0442505,0.00335693,0.0369263,0.012207,-0.032959,-0.0210571,0.0448608,0.0341797
129,1,0.0222778,0.0259399,0.0408936,0.0418091,0.0195312,0.0274658,0.0253296,0.0308228,0.00915527,0.00427246,-0.0531006,0.0289917,0.0427246
129,2,0.00762939,0.032959,0.0396729,0.0280762,0.0247192,0.0335693,0.0250244,0.0616455,0.0222778,0.0216675,-0.0271606,0.00732422,0.0131226
129,3,-0.0146484,0.0262451,0.0283813,0.110779,0.0228882,0.0274658,0.0839233,0.0506592,0.0112915,0.0778198,-0.0567627,0.00671387,0.108948
129,4,-0.0213623,0.0445557,0.0338745,0.0350952,0.0357056,0.0311279,0.0158691,0.020752,0.0201416,0.0323486,-0.0289917,-0.0311279,0.0323486
130,0,0.00274658,0.0390625,-0.00244141,0.0393677,0.0192261,0.0576782,0.0164795,0.0509644,0.0256348,0.0259399,-0.0228882,-0.00701904,0.0244141
130,1,-0.000610352,0.0213623,0.0317383,0.0158691,0.0234985,0.0115967,0.0143433,0.0222778,0.0125122,0.0299072,-0.0198364,0.00274658,-0.0189209
130,2,0.020752,0.0296021,0.0497437,0.0234985,0.0244141,0.0195312,0.0222778,0.0427246,0.0268555,0.0396729,-0.0119019,0.0198364,0.0222778
130,3,0.0411987,0.0363159,0.0274658,0.0222778,0.0177002,0.0262451,0.0231934,0.0296021,0.0204468,0.0454712,-0.0140381,0.0320435,0.0311279
130,4,0.0326538,0.0204468,0.017395,0.0125122,0.0231934,0.0335693,0.0143433,0.062561,0.0170898,0.0244141,-0.0152588,0.0222778,0.00610352
131,0,0.0253296,-0.000610352,0.00579834,0.0299072,0.0491333,0.022583,0.010376,0.032959,0.0112915,0.0106812,-0.0204468,-0.00732422,0.038147
131,1,0.0115967,0.0265503,0.017395,0.0259399,-0.0234985,0.00732422,0.0152588,0.0509644,0.0146484,0.0344849,-0.00946045,0.0457764,0.027771
131,2,0.0189209,0.0302124,0.00579834,0.0100708,0.0109863,0.0247192,0.0357056,0.0582886,0.0112915,0.0222778,0.00305176,0.0262451,0.0189209
131,3,0.000305176,0.0210571,0.0152588,0.0250244,0.0317383,0.020752,0.00793457,0.0967407,0.0692749,0.0430298,-0.0189209,0.0088501,0.0509644
131,4,0.022583,0.017395,0.0256348,0.0274658,0.0271606,0.0292969,0.0201416,0.137939,0.0195312,0.0436401,-0.022583,0.0445557,0.0375366
132,0,0.0613403,0.00274658,0.027771,0.0332642,-0.0234985,0.0170898,0.03479,0.10498,0.0253296,0.0323486,-0.0109863,0.0488281,0.0320435
132,1,0.0735474,0.0262451,0.0143433,0.0558472,0.0256348,0.0152588,0.0454712,0.0927734,0.00732422,0.043335,-0.0408936,0.0585938,0.038147
132,2,0.0537109,0.0143433,0.0100708,0.0283813,0.0164795,0.0421143,0.0241089,0.0958252,0.0170898,0.0308228,-0.0564575,0.0610352,0.0189209
132,3,0.0842285,0.00396729,0.0180054,0.0302124,0.022583,0.0213623,0.0283813,0.0698853,0.0161743,0.0259399,-0.0366211,0.0469971,0.0189209
132,4,0.0296021,0.0253296,0.0296021,0.0335693,0.0250244,0.0219727,0.0180054,0.0784302,0.0201416,0.0140381,-0.0213623,0.0454712,0.0411987
133,0,-0.0100708,0.0131226,0.0256348,0.0305176,0.0375366,0.0357056,0.0201416,0.101624,0.0128174,0.0283813,-0.0170898,0.039978,0.0247192
133,1,-0.00518799,-0.000915527,0.0332642,0.0421143,0.0311279,0.0222778,0.0302124,0.0708008,0.00396729,0.057373,-0.00549316,0.0112915,0.0738525
133,2,-0.0366211,0.0189209,0.0259399,0.0292969,0.0695801,0.0177002,0.0112915,0.0500488,0.027771,0.00854492,-0.0390625,-0.00671387,0.0192261
133,3,0.0244141,0.0115967,0.0106812,0.0274658,0.0195312,0.0372314,0.0378418,0.06073,0.0357056,0.00701904,-0.0201416,-0.0540161,0.0253296
133,4,0.0265503,0.00488281,0.0128174,0.0454712,0.0253296,0.0308228,0.0350952,0.0439453,0.0265503,0.0259399,-0.027771,-0.0305176,0.0292969
134,0,0.0686646,0.0115967,0.010376,0.0195312,0.0274658,0.0387573,0.0274658,0.0247192,0.0259399,0.00701904,-0.0253296,-0.00915527,0.00518799
134,1,0.0769043,0.0143433,0.039978,0.0268555,0.0274658,0.0592041,0.0274658,0.0424194,0.0259399,0.00946045,-0.0219727,0,0.0299072
134,2,0.0445557,0.0180054,0.0292969,0.0228882,0.0250244,0.0283813,0.0198364,0.0469971,0.00823975,0.0146484,-0.0100708,0.032959,0.0244141
134,3,0.0646973,0.0201416,0.0283813,0.0292969,0.0253296,0.0335693,0.0228882,0.0314331,0.022583,-0.00518799,-0.0341797,0.0167847,-0.00671387
134,4,0.0402832,0.0408936,0.0787354,0.0271606,0.027771,0.0238037,0.0360107,0.0289917,-0.0177002,0.00396729,-0.015564,0.017395,0.0180054
135,0,0.0350952,-0.00366211,0.0192261,0.0436401,0.0265503,0.0271606,0.0457764,0.0604248,0.0204468,0.00183105,-0.0228882,0.0170898,0.017395
135,1,0.00946045,0.00457764,0.00274658,0.0274658,0.0305176,0.038147,0.0283813,0.0479126,0.0164795,0.0222778,-0.00518799,0.0115967,0.0100708
135,2,0.0012207,0.010376,0.0268555,0.0177002,0.0311279,0.0476074,0.043335,0.0259399,-0.00213623,0.0149536,-0.0146484,0.0119019,0.0241089
135,3,0.0170898,0.0125122,-0.0241089,0.0152588,0.015564,0.0756836,0.0408936,0.0186157,0.0137329,0.0167847,0.00213623,0.00213623,0.0213623
135,4,0.0183105,0.0320435,0.0311279,0.0170898,0.0247192,0.0357056,0.0375366,0.00396729,-0.00610352,0.00762939,-0.0119019,0.0485229,0.00640869
136,0,0.010376,0.0158691,0.0280762,0.0250244,0.0283813,0.0360107,0.0250244,0.00946045,0.00854492,0.032959,-0.0128174,0.00854492,0.0088501
136,1,0.0186157,0.0238037,0.0189209,0.0213623,0.0320435,0.0292969,0.032959,0.00549316,0.0234985,0.0228882,-0.015564,0.0238037,0.0256348
136,2,0.000305176,0.0201416,0.0170898,0.0112915,0.0314331,0.0302124,0.0256348,0.0415039,0.0186157,0.0460815,-0.0149536,0.0280762,0.00793457
136,3,-0.0613403,0.0241089,0.0222778,0.0268555,0.0253296,0.0311279,0.00946045,0.0296021,0.0192261,0.0289917,-0.00823975,-0.00671387,0.0256348
136,4,0.0231934,-0.0177002,0.0241089,0.0311279,0.0323486,0.0146484,0.00213623,0.0180054,0.0164795,0.0271606,-0.0259399,0.0115967,0.0292969
137,0,-0.020752,0.00457764,0.00640869,0.0137329,0.0317383,0.0286865,0.0216675,0.0167847,0.0283813,0.0454712,-0.0204468,-0.0131226,0.0109863
137,1,-0.0369263,0.0296021,0.0149536,0.0335693,0.0323486,0.0546265,0.0289917,0.0372314,0.00213623,0.0271606,-0.015564,-0.00854492,0.0296021
137,2,-0.0283813,0.0115967,0.0241089,0.000610352,0.0253296,0.0265503,0.0390625,0.0323486,0.0357056,0.017395,-0.0189209,0.000915527,0.0299072
137,3,-0.0143433,-0.00396729,0.000610352,0.027771,0.00732422,0.0369263,0.0338745,0.0256348,0.0238037,0.0326538,0.0112915,0.020752,0.0341797
137,4,-0.00946045,-0.0250244,0.0131226,-0.00762939,0.0292969,0.0311279,-0.0335693,0.0299072,0.0128174,-0.0311279,-0.00915527,0.0305176,0.0161743
138,0,-0.00579834,0.012207,-0.0198364,0.0308228,0.0323486,0.00244141,0.00396729,0.0088501,0.00640869,0.0161743,-0.0143433,0.0195312,0.0296021
138,1,0.00335693,0.00488281,0.00335693,0.027771,0.0268555,0.0442505,0.032959,-0.0378418,0.0280762,0.0238037,-0.0170898,-0.0265503,0.0259399
138,2,0.0268555,0.0146484,0.0216675,0.0256348,0.0531006,-0.0311279,0.0341797,-0.0372314,0.0219727,0.0192261,-0.0167847,0.0125122,0.0115967
138,3,0.0610352,0.00976562,0.00793457,0.0488281,0.0274658,0.0512695,0.0283813,-0.027771,0.0292969,0.0280762,-0.0305176,0.0299072,0.00396729
138,4,0.0366211,-0.00427246,0.0112915,0.0350952,0.0170898,0.0622559,0.0216675,-0.0189209,0.0341797,0.0088501,-0.0265503,0.0216675,0.00762939
139,0,0.00457764,0.00488281,0.0228882,0.027771,0.015564,0.0119019,0.0445557,-0.00946045,0.0180054,0.0198364,-0.0247192,-0.00915527,0.0195312
139,1,-0.0012207,0.00518799,0.010376,0.0845337,0.0332642,0.0296021,0.0234985,-0.0012207,0.0241089,0.0280762,-0.0088501,0.0262451,0.0201416
139,2,-0.0238037,0.0311279,0.0234985,0.0180054,0.0314331,0.0204468,0.0408936,-0.00854492,0.00762939,0.00213623,-0.0473022,0.0238037,0.017395
139,3,-0.0747681,0.00793457,-0.00793457,0.0430298,0.0274658,0.0317383,0.0183105,-0.0305176,0.0253296,0.00946045,-0.010376,0.0222778,0.0216675
139,4,0.020752,0.0128174,0.00213623,0.0265503,0.0131226,0.0369263,0.0439453,0.0112915,0.0128174,0.00427246,-0.0201416,0.0296021,-0.00183105
140,0,0.144348,0.017395,0.00488281,0.0253296,0.0183105,0.0259399,0.0253296,-0.000610352,0.0531006,0.00305176,-0.0256348,0.0799561,0.0253296
140,1,0.193176,0.00152588,-0.00427246,0.0250244,0.0317383,0.0335693,0.0448608,0.0109863,0.0201416,0.00427246,-0.0216675,-0.00335693,-0.0146484
140,2,0.119629,0.0164795,0.0189209,0.0198364,0.0234985,0.0180054,0.0424194,0.0177002,0.0286865,0.0177002,0.00549316,0.0134277,0.0158691
140,3,0.0732422,0.0405884,-0.0228882,0.017395,0.0265503,-0.0238037,0.0402832,0.0131226,0.0128174,0.0201416,-0.0213623,0.00732422,0.0247192
140,4,0.0296021,0.0247192,0.0161743,0.0958252,0.0112915,0.03479,0.0418091,-0.00671387,0.0366211,0.00854492,-0.0332642,0.00701904,0.0262451
141,0,-0.0164795,0.0125122,-0.00549316,0.0186157,0.0238037,0.0228882,0.0299072,-0.0186157,0.0369263,0.00396729,-0.0292969,0.00946045,0.0317383
141,1,0.0320435,0.00305176,0.0125122,0.00213623,0.00274658,0.0296021,0.0421143,0.0259399,0.032959,0.00183105,-0.0143433,0.00488281,0.0106812
141,2,0.0582886,0.0146484,-0.00152588,0.0714111,0.0253296,0.0326538,0.102539,0.0338745,0.0335693,0.0790405,0.0259399,0.00915527,0.055542
141,3,0.0350952,0.0137329,0.0674438,0.0164795,0.00976562,0.0354004,0.0372314,0.0393677,0.0283813,0.0231934,-0.00946045,0.017395,-0.0109863
141,4,0.0131226,0.0854492,0.00701904,0.0189209,0.0314331,0.0317383,0.0396729,0.0201416,0.0360107,0.0372314,-0.0213623,-0.0317383,0.0189209
142,0,0.0326538,0.0146484,0.0146484,0.0131226,0.0268555,0.0222778,0.022583,0.0448608,0.017395,-0.038147,-0.0210571,0.0180054,-0.0177002
142,1,0.0216675,0.0170898,0.00579834,0.0222778,0.00976562,0.0338745,0.0283813,0.0164795,0.0119019,0.0189209,-0.0216675,0.0201416,0.0271606
142,2,0.0247192,0.00854492,0.0164795,0.0213623,0.0592041,0.0424194,0.0338745,0.0357056,0.0268555,0.00366211,-0.0350952,-0.00579834,0.0271606
142,3,0.00823975,0.0146484,0.00915527,0.00549316,0.0253296,-0.0164795,0.0506592,0.0561523,0.0259399,0.032959,-0.0238037,0.00610352,0.0265503
142,4,0.00701904,0.0198364,0.0231934,0.0234985,0.0170898,-0.0418091,0.0396729,0.0396729,0.0610352,0.0213623,-0.0256348,0.0338745,0.0177002
143,0,0.00671387,0.00305176,0.0170898,0.0244141,0.0259399,0.0561523,0.0488281,0.0585938,0.0296021,0.0317383,-0.0338745,0.00244141,0.0192261
143,1,-0.00335693,-0.0262451,0.0244141,0.0128174,0.0265503,0.0259399,0.0646973,0.0357056,0.0192261,0.0338745,-0.0119019,0.020752,0.00579834
143,2,0.015564,0.0201416,0.0140381,-0.00976562,0.0250244,0.0234985,0.0222778,0.0231934,0.0445557,0.0363159,-0.0164795,-0.00579834,0.0222778
143,3,0.00701904,0.0234985,0.022583,0.0228882,0.0158691,0.0143433,0.0213623,-0.0360107,0.0131226,0.0363159,-0.0430298,0.0170898,0.0112915
143,4,-0.00518799,0.0112915,0.0210571,0.0183105,0.0088501,0.0265503,0.0286865,-0.0259399,0.0247192,-0.0164795,-0.0357056,0.010376,0.0747681
144,0,-0.043335,-0.00213623,0.00640869,0.0161743,0.0186157,0.0280762,0.0274658,0.00854492,0.0299072,0.0442505,-0.0283813,0.0131226,0.0143433
144,1,-0.0457764,0.0457764,0.00244141,0.0213623,0.0366211,0.022583,0.0289917,0.0308228,0.0161743,0.0405884,-0.0384521,0.03479,0.00732422
144,2,-0.090332,0.0106812,-0.0106812,0.00854492,0.00183105,0.0180054,0.0231934,0.0253296,0.0198364,0.0427246,-0.0286865,0.0213623,0.0292969
144,3,-0.112,0.015564,0.0177002,0.0787354,0.0231934,0.00244141,-0.0314331,0.0161743,0.0311279,0.00854492,-0.027771,0.022583,0.0674438
144,4,-0.0106812,0.0238037,0.0265503,0.0216675,0.0219727,0.015564,0.0341797,0.0369263,0.0198364,0.0421143,-0.0238037,0.015564,0.0320435
145,0,0.0454712,0.0186157,0.0259399,0.00946045,0.0216675,0.010376,-0.0286865,0.0311279,0.0195312,0.0427246,-0.0311279,0.0286865,0.010376
145,1,0.0848389,0.0238037,0.015564,0.0521851,0.0338745,0.0244141,0.0286865,-0.0305176,0.0311279,0.027771,-0.0238037,0.00610352,0.00976562
145,2,0.0698853,0.0189209,0.0143433,0.0234985,0.020752,0.0231934,-0.00366211,0,0.0164795,0.0421143,-0.010376,0.00396729,0.0494385
145,3,0.0942993,0.00854492,0.0100708,0.00549316,0.0109863,0.0146484,0.0424194,0.00701904,0.0271606,0.0469971,-0.0354004,0.0158691,0.017395
145,4,0.0979614,0.020752,0.012207,0.0228882,0.0149536,0.0878906,0.0427246,-0.0012207,0.0604248,0.0222778,-0.0244141,0.00183105,-0.00915527
146,0,0.0570679,0.0717163,0.0106812,0.0183105,0.0357056,0.0131226,0.0387573,-0.0265503,0.0177002,0.0320435,-0.0256348,-0.0183105,0.0158691
146,1,0.0518799,0.0210571,0.0384521,0.0323486,0.0183105,0.0161743,0.038147,0.0143433,0.0219727,0.0146484,-0.0247192,0.0259399,0.00671387
146,2,0.0570679,0.0167847,-0.0012207,0.00854492,0.0210571,0.027771,0.0387573,0.00366211,0.027771,0.0210571,-0.0338745,0.0125122,0.0198364
146,3,0.0372314,0.0601196,0.0167847,0.0268555,0.0491333,0.0238037,0.0354004,-0.0177002,0.0341797,0.0164795,-0.0262451,0.00335693,0.0146484
146,4,0.0485229,0.0134277,0.00488281,0.0204468,0.0161743,0.0549316,0.0259399,0.0192261,0.0308228,0.0457764,-0.0186157,0.0189209,0.0344849
147,0,0.0384521,0.0299072,0.00793457,0.0158691,0.0158691,0.0183105,0.0430298,0.0241089,0.0585938,0.0213623,-0.0241089,0.0665283,0.0216675
147,1,0.0213623,0.017395,0.00701904,0.032959,0.0198364,0.0335693,0.0363159,0.020752,0.039978,0.0317383,-0.0228882,0.0234985,0.0195312
147,2,0.0311279,0.0256348,0.0283813,0.0125122,0.0415039,0.020752,0.017395,0.0335693,0.0375366,0.0360107,-0.0363159,0.0283813,0.0247192
147,3,0.0198364,-0.00518799,0.0167847,0.00854492,0.00915527,0.0250244,0.0762939,0.0256348,0.00335693,0.0360107,-0.0320435,0.0292969,0.00488281
147,4,-0.0115967,0.0311279,0.0231934,0.0323486,0.0177002,0.012207,0.020752,0.00915527,0.0311279,0.0192261,-0.00976562,0.020752,0.0201416
148,0,0.0286865,0.0234985,0.03479,0.00610352,0.0140381,0.00305176,0.0262451,0.0119019,0.0299072,0.0247192,-0.0238037,0.0289917,0.0286865
148,1,0.0247192,0.0170898,0.0164795,0.0109863,0.0375366,0.0195312,0.0311279,0.0396729,0.0314331,0.0289917,-0.0299072,0.0128174,0.0238037
148,2,0.0112915,-0.0204468,0.0216675,0.0271606,0.0564575,0.00396729,0.0180054,0.0167847,0.0189209,0.0311279,-0.0250244,0.0198364,0.0289917
148,3,0.0283813,0.0210571,0.0369263,0.0164795,0.0177002,0.0604248,0.0167847,0.0268555,0.0262451,0.0286865,-0.0247192,0.0265503,0.00427246
148,4,0.0332642,0.0250244,0.010376,0.0112915,0.00396729,0.0253296,0.0210571,0.0250244,0.027771,0.0408936,-0.038147,0.0158691,0.0189209
149,0,0.0317383,-0.0219727,0.0280762,0.0201416,-0.0234985,0.022583,0.0106812,0.0753784,0.0259399,0.0149536,-0.0305176,0.0164795,0.0201416
149,1,0.0170898,0.00915527,0.00701904,0.0204468,0.0183105,0.0149536,0.03479,0.0115967,0.0140381,-0.00457764,-0.0341797,0.0012207,-0.00366211
149,2,-0.000305176,0.00915527,0.0241089,0.00305176,0.00610352,0.0192261,0.0112915,0.0259399,0.0268555,0.0408936,-0.0314331,0.00335693,0.0250244
149,3,0.0424194,0.0131226,0.0274658,-0.0012207,0.0280762,0.0152588,0.0112915,0.0338745,0.0476074,0.0253296,-0.0405884,0.010376,0.0088501
149,4,0.0195312,0.0158691,0.0109863,0.0128174,0.00671387,0.00305176,0.0164795,0.0100708,0.0308228,0.0338745,-0.0299072,0.0189209,0.03479
150,0,0.00671387,0.00671387,0.0271606,0.012207,0.00366211,0.00671387,0.0302124,0.0299072,-0.0109863,0.0326538,-0.0344849,-0.00640869,0.0241089
150,1,0.0161743,0.0750732,0.0299072,0.00854492,0.0177002,0.0305176,0.0320435,0.0247192,0.0100708,0.0378418,-0.0268555,0.017395,0.0314331
150,2,0.000915527,0.0186157,0.088501,0.0164795,0.0161743,0.0973511,0.0106812,0.0582886,0.06073,0.0268555,-0.0338745,0.0390625,0.0210571
150,3,0.0653076,0.032959,0.0289917,0.0595093,0.00701904,0.0302124,-0.0314331,0.0537109,0.0146484,-0.00915527,-0.0650024,0.0326538,0.0259399
150,4,0.0299072,0.0152588,0.027771,-0.0146484,0.0823975,0.0210571,0.0143433,0.0323486,0.00915527,0.00457764,-0.0384521,0.0335693,0.0265503
151,0,0.0140381,0.0219727,0.00671387,0.0320435,0.0131226,0.0512695,0.0195312,0.0592041,0.0421143,0.00640869,-0.0247192,0.0405884,0.0244141
151,1,0.0115967,0.00701904,0.00793457,0.00946045,0.0457764,0.012207,0.0274658,0.0549316,0.0219727,0.00701904,-0.0421143,0.0396729,0.0283813
151,2,0.0323486,0.0656128,0.00946045,-0.00213623,0.0592041,0.0164795,0.0177002,0.0515747,0.00366211,-0.00854492,-0.0292969,0.0259399,0.0152588
151,3,0.015564,0.0326538,0.0125122,0.0161743,0.012207,-0.00183105,0.0244141,0.0137329,0.0396729,0.0210571,-0.0631714,0.0286865,0.0186157
151,4,0.0192261,0.0372314,0.0274658,0.0238037,0.0192261,0.0115967,0.0650024,0.0463867,0.0167847,0.0341797,-0.0152588,0.0198364,0.0286865
152,0,-0.0289917,0.0289917,0.0161743,0.0476074,0.00610352,0.0286865,0.0531006,0.0454712,0.0335693,-0.00335693,-0.0372314,0.0161743,0.0216675
152,1,0.0183105,0.0402832,0.015564,0.00701904,0.0152588,0.0219727,0.0268555,0.0369263,-0.0152588,0.00579834,-0.0244141,-0.0177002,0.017395
152,2,0.0247192,0.0201416,0.0146484,0.0256348,0.00488281,0.010376,0.00640869,0.104675,0.0289917,0.0213623,-0.0762939,0.0283813,0.0296021
152,3,-0.00549316,0.0271606,0.0158691,0.0299072,-0.0360107,0.0198364,-0.0100708,0.0839233,0.0305176,0.0256348,-0.022583,0.0250244,0.0262451
152,4,-0.0158691,0.0219727,0.0387573,0.010376,0.00396729,0.0643921,0.00793457,0.0344849,0.0167847,0.0280762,-0.0296021,0.0204468,0.0418091
153,0,-0.0231934,0.0234985,0.0698853,0.0210571,0.0274658,-0.0286865,-0.000915527,0.0106812,0.0692749,0.027771,-0.032959,0.032959,0.0317383
153,1,-0.00946045,0.0216675,0.0177002,0.0384521,-0.00396729,0.0189209,0.00732422,0.0631714,0.0341797,0.0167847,-0.039978,0.0485229,0.0228882
153,2,-0.0177002,0.0271606,0.0140381,0.010376,0.0170898,-0.00823975,0.00152588,0.0332642,0.0250244,0.0170898,-0.0332642,0.0656128,0.0448608
153,3,-0.0274658,0.0183105,0.0183105,-0.0012207,-0.00335693,0.0238037,0.00457764,-0.0234985,0.0326538,0.0268555,-0.0469971,0.0387573,0.0158691
153,4,0.0473022,0.0241089,-0.0170898,0.0286865,0.00305176,0.0186157,0.0088501,-0.0140381,0.0375366,0.0302124,-0.0314331,0.0567627,0.0161743
154,0,0.0796509,0.0253296,0.032959,0.0341797,0.00946045,0.027771,0.0164795,-0.00518799,0.00335693,0.0244141,-0.0274658,0.0149536,0.0137329
154,1,0.06073,0.0265503,0.0231934,0.0180054,0.0100708,0.0149536,0.0204468,-0.0158691,0.0195312,0.0311279,-0.0198364,-0.0146484,0.0125122
154,2,0.0305176,0.0634766,0.0231934,0.00854492,0.0372314,0.0167847,0.0234985,-0.00152588,0.0149536,0.0350952,-0.0250244,0.0357056,0.022583
154,3,0.0238037,0.0222778,0.0256348,0.0180054,0.00335693,0.00671387,0.00579834,0.022583,0.0665283,0.0375366,-0.0326538,0.0991821,0.0201416
154,4,0.0546265,0.0289917,0.0213623,0.00946045,0.0216675,0.0115967,0.0192261,0.0238037,0.017395,0.0204468,-0.0274658,0.0198364,0.0296021
155,0,0.0531006,0.0177002,0.0167847,0.00976562,0.0152588,0.017395,0.0088501,0.00610352,0.0296021,0.0326538,-0.00701904,0.0161743,0.0131226
155,1,0.0363159,0.0280762,0.0317383,0.0106812,0.0170898,0.0817871,0.0250244,0.022583,0.0326538,0.0192261,-0.0286865,-0.00762939,0.032959
155,2,0.0726318,0.0918579,0.0424194,-0.00274658,0.0701904,0.00823975,0.0131226,0.0164795,0.022583,0.0289917,-0.0314331,0.0192261,0.0393677
155,3,0.102234,0.0372314,0.0308228,0.0146484,0.00518799,0.0115967,0.0228882,0.0216675,0.0311279,0.0338745,-0.0332642,-0.00305176,0.0585938
155,4,0.0753784,0.0299072,0.0216675,0.0286865,0.0167847,0.0137329,0.0637817,0.027771,0.0335693,0.0271606,-0.0302124,0.00518799,0.0436401
156,0,0.0836182,0.0314331,0.020752,0.0106812,0.00518799,0.0125122,0.00671387,0.0448608,0.0296021,-0.0088501,-0.0393677,-0.00946045,0.0271606
156,1,0.00793457,0.0402832,0.0106812,0.0128174,0.0311279,0.00946045,0.020752,0.0405884,0.0320435,0.0109863,-0.0323486,-0.00335693,0.0378418
156,2,0.0369263,0.0195312,0.00244141,0.0292969,0.0274658,0.00396729,0.0195312,0.0259399,0.027771,0.0238037,-0.0320435,0.0216675,0.0244141
156,3,-0.0271606,0.0292969,0.00671387,0.0738525,0.0219727,0.000305176,-0.0296021,0.0479126,0.0140381,-0.000610352,-0.0189209,0.0326538,0.0363159
156,4,0.022583,0.0186157,0.0198364,0.0149536,-0.0152588,0.0408936,0.0137329,0.0378418,0.0253296,0.0540161,-0.0592041,0.0524902,0.0231934
157,0,0.0170898,0.0115967,-0.0219727,0.0219727,0.0164795,0.0201416,0.0204468,0.0146484,-0.000610352,0.0646973,-0.0350952,0.0466919,0.0247192
157,1,0.032959,0.0320435,0.00152588,0.0497437,0.0109863,0.0195312,0.00579834,0.0137329,0.0378418,0.0720215,-0.0372314,0.0476074,0.0253296
157,2,0.0775146,0.0161743,-0.00610352,-0.0341797,0.0186157,0.020752,0.0271606,0.00793457,0.0338745,0.072937,0.000610352,0.0436401,0.039978
157,3,0.000915527,0.0323486,-0.00335693,0.00579834,0.0088501,0.00976562,0.0152588,0.0180054,0.0357056,0.083313,-0.0448608,0.0143433,0.0976562
157,4,0.00366211,0.0201416,0.0177002,0.0552368,0.00732422,0.0112915,0.0112915,-0.00244141,0.0372314,0.0698853,-0.0189209,0.0402832,0.0128174
158,0,-0.0204468,0.0274658,-0.00762939,0.0271606,0.0180054,-0.00152588,0.0180054,0.0308228,0.0186157,0.0662231,-0.0427246,-0.00427246,0.020752
158,1,-0.00274658,0.0265503,0.00549316,0.017395,0.00762939,0.0106812,0.015564,0.0280762,0.0250244,0.0698853,-0.0283813,0.032959,0.00793457
158,2,0.0518799,0.0344849,0.00854492,0.0439453,0.0189209,0.0106812,0.00366211,0.00274658,0.0283813,0.0592041,-0.0180054,0.00854492,0.0158691
158,3,0.0494385,0.038147,0.0149536,0.0192261,0.0292969,0.00274658,0.0192261,0.0137329,0.039978,0.062561,-0.0296021,0.0488281,0.0128174
158,4,0.0189209,0.0393677,0.0335693,0.0274658,0.0192261,0.0109863,0.0177002,0.0341797,0.0338745,0.0427246,-0.0253296,0.0164795,0.0201416
159,0,0.0247192,0.0311279,0.0448608,0.015564,0.0134277,0.0228882,0.0149536,0.0216675,0.0506592,0.0387573,-0.0375366,0.0622559,0.0195312
159,1,0.0234985,0.0363159,0.0378418,0.0152588,0.0280762,0.0109863,0.0106812,-0.00610352,0.0360107,0.03479,-0.0616455,0.0308228,0.0308228
159,2,0.0610352,0.0125122,0.0292969,0.0180054,0.00305176,0.000610352,0.00976562,0.012207,0.0234985,0.0274658,-0.0320435,0.0210571,0.0274658
159,3,0.085144,0.038147,0.0125122,0.0186157,-0.00701904,0.0192261,0.0115967,0.0375366,0.0247192,0.0262451,-0.0280762,0.0445557,0.0296021
159,4,0.00152588,0.0280762,0.00549316,-0.043335,0.0283813,0.0357056,0.00701904,0.0289917,0.0204468,-0.00244141,-0.050354,0.0177002,-0.0125122
160,0,0.0439453,0.0579834,0.0241089,0.0128174,0.0198364,0.0146484,0.0405884,0.0408936,0.0283813,0.0619507,-0.0259399,0.0405884,0.0674438
160,1,0.0338745,0.0228882,0.0302124,0.00518799,0.0198364,0.0128174,0.0872803,0.0509644,0.0128174,0.0283813,-0.0228882,0.0146484,0.0283813
160,2,0.043335,0.0341797,0.0289917,-0.0128174,0.0445557,0.039978,0.0415039,0.0308228,0.0140381,0.0762939,-0.0341797,0.0164795,0.0201416
160,3,0.0473022,0.057373,0.0213623,0.0161743,0.00762939,0.0357056,0.0222778,-0.0332642,0.0152588,0.0238037,-0.0238037,0.00671387,0.0296021
160,4,0.0332642,0.0271606,0.0283813,0.0372314,0.0216675,0.0241089,0.0125122,0.0454712,0.00671387,0.0137329,-0.0247192,0.0195312,-0.00244141
161,0,0.0308228,0.0457764,0.0274658,0.0186157,-0.0216675,0.00488281,0.00671387,0.0726318,-0.000610352,0.0219727,-0.0360107,0.017395,0.0234985
161,1,0.0158691,0.0311279,0.0189209,0.0186157,0.0253296,0.015564,0.00701904,0.0204468,0.0570679,0.0128174,-0.0326538,-0.000915527,0.0286865
161,2,0.0241089,0.0338745,0.0408936,0.0186157,0.0012207,0.0259399,0.0109863,0.00579834,0.0167847,0.00701904,-0.0323486,0.0317383,0.0271606
161,3,0.0372314,0.0234985,0.0280762,0.0335693,0.027771,0.0137329,-0.022583,0.0302124,0.0216675,0.055542,-0.0192261,0.0418091,0.0192261
161,4,0.0289917,0.0146484,0.0466919,0.0274658,0.0219727,0.0192261,0.0088501,0.0177002,0.010376,0.00915527,-0.0216675,0.0357056,0.0485229
162,0,-0.0137329,0.0320435,0.020752,0.0158691,0.0378418,0.00915527,0.00457764,-0.0125122,0.00640869,0.00488281,-0.0274658,0.0479126,0.0320435
162,1,0.00152588,0.0177002,0.0152588,0.0350952,0.0204468,0.00793457,0.0219727,0.0311279,0.020752,-0.0088501,-0.0228882,0.0454712,0.0186157
162,2,0.0131226,0.0131226,0.0256348,0.0396729,0.0234985,0.0491333,0.0170898,0.0311279,0.0115967,-0.0289917,-0.0332642,0.0219727,0.0170898
162,3,0.0149536,-0.00244141,0.0247192,0.0241089,0.0256348,0.0323486,0.012207,0.0149536,0.0262451,-0.0292969,-0.0308228,0.0308228,0.0311279
162,4,0.0286865,0.0784302,0.0219727,0.0366211,0.0253296,0.0158691,0.0125122,0.00732422,0.0167847,-0.0183105,-0.0375366,0.0112915,0.0387573
163,0,0.0161743,0.000915527,0.0494385,0.0314331,0.032959,0.0164795,0.0140381,0.0192261,0.0183105,-0.00457764,-0.0320435,0.0320435,0.0271606
163,1,0.0274658,0.0369263,0.0387573,0.0286865,0.0210571,0.0170898,0.0112915,0.00305176,0.0128174,-0.0198364,-0.0344849,0.0640869,0.0320435
163,2,0.0662231,0.0189209,0.032959,0.0698853,0.0137329,0.0228882,0.015564,0.0247192,0.0100708,-0.0164795,-0.0131226,0.0305176,0.0390625
163,3,0.0256348,0.0286865,0.00183105,0.0204468,0.027771,0.0448608,0.0131226,0.0213623,0.0125122,-0.00274658,-0.0366211,0.0354004,0.00640869
163,4,0.0167847,0.0323486,0.0326538,0.017395,0.0201416,-0.000915527,0.0213623,-0.0161743,0.010376,-0.000915527,-0.0244141,0.0479126,0.0253296
164,0,0.00274658,0.0335693,0.0192261,0.0109863,0.0320435,0.0378418,0.0115967,0.0137329,0.0341797,0.00488281,-0.0372314,0.0247192,0.0213623
164,1,0.0341797,0.0323486,0.0296021,0.0436401,0.03479,0.0140381,0.0338745,-0.00854492,0.0100708,-0.0146484,-0.0338745,0.0430298,-0.0393677
164,2,0.0164795,0.0338745,0.0448608,0.0292969,0.0216675,0.0204468,0.00946045,0.0311279,0.010376,0.0302124,-0.022583,0.0305176,0.0268555
164,3,0.0189209,0.039978,0.0372314,0.0460815,0.027771,0.0296021,0.0689697,0.0274658,0.0180054,-0.00335693,-0.0204468,0.0308228,0.0466919
164,4,0.0219727,0.0479126,0.0262451,0.0308228,0.0296021,0.0210571,0.0109863,0.00823975,0.00335693,0.0384521,-0.0344849,0.0268555,0.0317383
165,0,0.0366211,0.0283813,0.0384521,0.00976562,0.0241089,-0.000915527,0.0418091,0.0338745,0.00915527,0.0460815,-0.0213623,0.0344849,0.012207
165,1,0.0216675,0.0390625,0.0454712,0.0317383,0.0323486,0.0189209,0.0238037,0.0521851,-0.00152588,0.0454712,0.000610352,0.0296021,0.0424194
165,2,0.00579834,0.0256348,0.0247192,0.0198364,0.0259399,0.0204468,0.0332642,0.0140381,-0.00305176,0.0463867,-0.0283813,0.0585938,0.020752
165,3,0.0216675,-0.000915527,0.0427246,0.0289917,0.0540161,0.0296021,0.0183105,-0.00366211,0.00244141,0.03479,-0.0262451,0.00854492,0.0292969
165,4,0.0366211,0.0302124,0.0302124,0.0326538,0.0149536,0.020752,0.0228882,0.0241089,0.0088501,0.0302124,-0.0247192,0.0241089,0.0418091
166,0,0.039978,0.0305176,-0.00976562,0.0341797,0.00396729,0.020752,0.0228882,0.0183105,0.0109863,0.0177002,-0.0274658,0.0183105,0.0201416
166,1,0.0244141,0.0283813,0.0592041,0.0646973,0.00823975,0.0283813,0.0259399,-0.012207,0.0198364,0.0302124,-0.0335693,0.0387573,0.0219727
166,2,0.0198364,0.0631714,0.0305176,0.0222778,0.0518799,0.038147,0.0302124,0.0140381,0.00671387,0.043335,-0.0152588,0.0158691,0.0335693
166,3,0.0366211,0.0332642,0.0469971,0.0369263,0.0161743,0.00915527,-0.0308228,0.0231934,0.0234985,0.0683594,-0.0363159,0.0244141,0.0128174
166,4,0.0177002,0.0292969,0.0335693,0.0253296,0.0265503,0.0466919,0.020752,-0.0186157,0.0134277,0.0247192,-0.0265503,0.0143433,0.0189209
167,0,0.0250244,0.0320435,0.0384521,0.0247192,0.0320435,0.0180054,0.0177002,-0.0115967,0.0210571,0.0183105,-0.0439453,0.0393677,0.0350952
167,1,0.0204468,-0.0143433,0.0280762,0.0137329,0.00335693,0.0164795,0.020752,0.0164795,0.00183105,0.0262451,-0.0289917,0.0326538,0.0418091
167,2,0.0323486,0.0244141,0.0384521,0.0299072,0.0317383,0.0323486,0.0149536,-0.00488281,-0.00183105,0.0198364,-0.0335693,0.0357056,0.0323486
167,3,0.0335693,0.0408936,0.0344849,0.0906372,0.027771,0.0305176,0.0143433,-0.0253296,0.0201416,0.0192261,-0.0418091,0.0354004,0.0311279
167,4,0.0317383,0.0189209,0.0909424,0.0402832,0.0259399,0.0253296,0.0222778,0.0183105,0.0088501,0.00946045,-0.0305176,0.0363159,-0.00579834
168,0,0.0213623,0.0360107,0.03479,0.020752,0.0302124,0.0357056,0.0238037,0.00854492,0.00457764,0.0234985,0.010376,0.0442505,0.0302124
168,1,0.0338745,0.03479,0.0491333,0.0390625,0.0296021,0.0280762,0.0213623,0.010376,-0.0158691,0.0314331,-0.017395,-0.0149536,0.0299072
168,2,0.00274658,0.0213623,0.0411987,0.00701904,0.017395,0.0146484,0.0408936,0.0152588,0.0180054,0.0415039,-0.0244141,0.0320435,0.0204468
168,3,0.020752,0.0247192,0.0286865,0.0170898,0.0201416,0.0460815,0.088501,0.0259399,0.000305176,0.0674438,-0.0271606,0.0088501,0.0320435
168,4,0.0183105,0.0289917,0.0393677,0.0372314,0.0213623,0.0308228,0.0241089,0.0241089,0.0128174,-0.00396729,-0.0268555,0.0317383,0.0128174
169,0,0.0256348,0.0238037,0.0476074,0.0134277,0.0164795,0.0210571,0.0238037,-0.000915527,0.00946045,-0.0195312,-0.0341797,0.0286865,0.00946045
169,1,0.0140381,0.0250244,-0.0012207,0.0228882,0.0320435,-0.0491333,0.020752,0.0115967,0.0494385,0.0088501,-0.0265503,0.0543213,0.0378418
169,2,0.00183105,0.0274658,0.0244141,0.0448608,0.0350952,0.0170898,0.0210571,-0.0463867,0.00396729,0.00671387,-0.0372314,0.0292969,0.03479
169,3,0.0344849,0.032959,0.017395,0.0283813,0.0238037,0.0430298,0.0192261,0.0170898,0.0177002,0.012207,-0.0289917,0.0326538,0.0457764
169,4,0.0268555,0.022583,0.0183105,0.0228882,0.00915527,0.0177002,0.0262451,-0.010376,0.0146484,0.0192261,-0.0228882,0.0302124,0.0280762
170,0,0.0164795,0.0247192,0.0296021,0.00671387,0.0323486,-0.00579834,0.0350952,0.0259399,0.0463867,0.03479,-0.0262451,-0.0479126,0.0268555
170,1,0.0146484,0.0149536,-0.0167847,0.0158691,0.0146484,0.0665283,0.0256348,0.0283813,-0.0152588,0.0262451,-0.0265503,0.0588989,0.0201416
170,2,0.0219727,0.0183105,0.0390625,0.0811768,0.0415039,0.0177002,-0.00976562,0.00671387,0.0228882,0.00732422,-0.0283813,0.0369263,0.0350952
170,3,0.0238037,0.0152588,0.0216675,0.010376,0.0439453,0.0180054,0.0219727,0.0311279,0.0115967,0.03479,-0.0296021,0.032959,0.0338745
170,4,0.0161743,0.0167847,0.0238037,0.0146484,0.0131226,0.0170898,0.0357056,0.00854492,0.00640869,0.0177002,-0.0164795,0.0241089,0.0396729
171,0,-0.00701904,0.0183105,0.0280762,0.020752,0.0360107,0.0158691,0.0219727,0.0656128,0.0247192,0,-0.00549316,0.0253296,0.0296021
171,1,0.0271606,0.0283813,0.0595093,0.0198364,0.0662231,0.0500488,0.0299072,0.00640869,0.0140381,0.0128174,-0.0231934,0.0402832,0.03479
171,2,0.0244141,0.020752,0.0231934,0.0241089,0.0177002,0.0195312,0.0183105,0.0360107,0.000610352,0.015564,-0.0286865,0.0283813,0.0369263
171,3,0.0601196,0.0314331,0.0341797,0.0613403,0.0149536,0.0177002,0.0012207,0.00244141,0.0140381,-0.0131226,0.00366211,0.0296021,-0.0213623
171,4,0.0134277,0.0360107,0.0332642,0.0189209,0.0405884,0.0189209,0.0271606,0.00549316,-0.0137329,-0.0360107,-0.0222778,0.0286865,0.010376
172,0,0.00823975,0.0274658,0.0714111,0.0292969,0.00335693,0.012207,0.0292969,0.0180054,0.0149536,0.0140381,-0.00854492,0.0198364,-0.00701904
172,1,0.0866699,0.0247192,0.0421143,0.0674438,0.0250244,0.0106812,0.0256348,0.0311279,0.00183105,0.0274658,-0.0222778,0.0366211,0.0354004
172,2,0.017395,0.0131226,0.0250244,0.0198364,0.0231934,0.032959,0.0244141,0.0164795,-0.0012207,0.0228882,-0.0222778,0.00488281,0.0271606
172,3,0.00396729,0.0265503,0.0723267,0.0396729,0.0338745,0.0250244,0.0201416,0,0.0210571,0.00549316,-0.0198364,0.0140381,0.020752
172,4,0.0286865,0.0143433,0.0323486,0.0186157,0.0265503,-0.00701904,0.0564575,0.027771,-0.0012207,0.0454712,-0.0167847,0.0149536,0.015564
173,0,0.0109863,0.03479,0.0308228,0.0274658,0.0415039,0.0128174,0.0247192,0.00640869,0.0183105,0.022583,-0.015564,0.0161743,0.0323486
173,1,0.0140381,0.032959,0.0314331,0.0195312,0.0344849,0.0219727,0.0445557,-0.00457764,0.00549316,0.00152588,-0.0152588,-0.00701904,0.0308228
