Devices
1000
,,Myon - Voltage,,,,,,,,,,,,,
Frame,Sub Frame,GC-M,TA,SOL,VM,VL,RF,BF,ST,GLUT-M,EO,Gracilis,GC-L,Semimembranosus
,,V,V,V,V,V,V,V,V,V,V,V,V,V
1,0,0.0268555,0.00213623,0.0241089,0.0408936,0.0231934,0.0125122,0.00701904,0.0213623,0.0253296,0.0341797,-0.0332642,-0.00549316,0.0387573
1,1,0.0384521,0.0311279,0.00640869,0.0115967,0.0137329,0.0228882,0.00823975,0.0143433,0.0247192,0.0305176,-0.0360107,0.0323486,0.0396729
1,2,0.0344849,0.0457764,0.0265503,0.0112915,0.0088501,0.0164795,0.0396729,0.0186157,0.0390625,0.0244141,-0.0360107,0.022583,0.0210571
1,3,0.0393677,0.0134277,0.0402832,0.0289917,0.0326538,0.0109863,0.0152588,-0.015564,0.0317383,0.043335,-0.0314331,0.0332642,0.0289917
1,4,0.0448608,0.0192261,0.0286865,0.0408936,0.0177002,0.0286865,-0.0265503,0.0125122,0.0241089,0.0671387,-0.0311279,0.0308228,0.03479
2,0,0.0363159,-0.00732422,0.0219727,0.0473022,0.0164795,0.0204468,0.00793457,0.0350952,0.0115967,0.0436401,-0.0335693,0.0088501,0.0344849
2,1,0.0146484,0.027771,0.0335693,0.0546265,0.0170898,0.0286865,0.0201416,0.0177002,0.0158691,0.0402832,-0.0274658,0.0247192,0.0323486
2,2,0.0421143,0.0170898,0.050354,0.0222778,0.0177002,0.0213623,0.012207,0.0158691,0.0265503,0.0302124,-0.0405884,0.017395,0.0421143
2,3,0.0338745,0.0482178,0.010376,0.0274658,0.0177002,0.0317383,0.00701904,0.0152588,0.0756836,0.038147,-0.0372314,-0.0189209,0.0280762
2,4,0.0527954,0.0341797,0.0183105,0.0213623,0.0131226,0.0332642,0.0213623,0.0134277,0.00915527,0.0430298,-0.0305176,0.00152588,0.0479126
3,0,0.0274658,0.0109863,0.00183105,0.0213623,0.0292969,-0.0363159,0.020752,0.0250244,-0.0308228,0.020752,-0.0271606,0.0320435,0.0421143
3,1,0.0320435,0.0396729,0.0311279,0.010376,0.00488281,0.0177002,0.0128174,0.017395,0.0332642,0.0305176,-0.0241089,0.0164795,0.0183105
3,2,0.0140381,0.0149536,0.0253296,-0.00152588,0.0109863,0.0149536,0.0326538,0.0820923,0.0296021,0.0262451,-0.0308228,0.0210571,0.0448608
3,3,0.032959,0.0158691,0.0732422,0.0158691,0,0.0283813,0.0189209,0.0338745,0.0280762,0.0204468,-0.0289917,0.0216675,0.0280762
3,4,0.0344849,0.0808716,0.0314331,-0.00732422,0.0219727,0.0183105,0.0305176,0.0204468,0.0210571,0.0350952,-0.0244141,0.0238037,0.0241089
4,0,0.0299072,0.0189209,0.0247192,0.0134277,0.00732422,0.0134277,0.0128174,0.0198364,0.0170898,0.0350952,-0.0256348,0.022583,0.0463867
4,1,0.0793457,0.0128174,0.00854492,0.00366211,0.0198364,0.0354004,0.0265503,0.00946045,0.0213623,0.0112915,-0.0518799,0.0195312,0.0418091
4,2,0.0201416,0.0360107,0.0289917,0.000915527,-0.00488281,0.0222778,0.0646973,0.0177002,0.0134277,0.0131226,-0.0180054,0.00457764,0.0378418
4,3,0.102844,0.0183105,0.0244141,-0.0393677,0.00854492,0.0274658,0.022583,0.015564,0.00823975,0.0268555,-0.0384521,0.0210571,0.0305176
4,4,0.0335693,0.0592041,0.0201416,0.00274658,0.0338745,0.0308228,0.0296021,0.0265503,0.0244141,0.0320435,-0.0292969,0.0250244,0.0234985
5,0,0.0201416,0.0299072,0.0308228,-0.0244141,0.000915527,0.0210571,0.0759888,0.0219727,0.0201416,0.0726318,-0.0283813,0.039978,-0.00427246
5,1,0.0369263,0.0668335,0.0262451,0.0262451,0.0344849,0.00396729,0.00610352,0.0299072,0.0180054,0.0256348,-0.0296021,0.0289917,0.0289917
5,2,0.032959,0.0430298,0.0274658,0.00549316,0.00518799,0.0430298,0.0280762,0.0256348,-0.0180054,0.0354004,-0.0396729,0.0350952,0.0320435
5,3,0.0323486,0.0491333,0.0125122,0.0363159,0.00274658,0.0271606,0.0363159,0.0186157,0.0247192,0.0256348,-0.0372314,0.0112915,0.0195312
5,4,0.0485229,0.032959,0.0192261,0.0799561,0.0231934,0.0112915,-0.0146484,0.0161743,0.0308228,0.0723267,-0.0457764,0.0292969,0.0372314
6,0,0.0222778,0.0369263,0.03479,0.0262451,0.00854492,0.0186157,0.015564,0.0152588,0.0320435,0.0213623,-0.03479,0.03479,-0.00366211
6,1,0.0415039,0.0112915,0.0299072,-0.00549316,0.0305176,0.0283813,0.0259399,0.022583,0.0222778,0.0161743,-0.0250244,0.0421143,0.0308228
6,2,0.0424194,0.0256348,0.0222778,0.0210571,0.0201416,0.0170898,0.027771,0.0134277,0.00946045,0.0241089,-0.0332642,-0.00610352,0.0338745
6,3,0.0363159,0.0164795,-0.00427246,0.0280762,-0.00396729,0.00274658,0.0259399,0.0140381,0.0341797,0.0213623,-0.0308228,0.0305176,0.0311279
6,4,0.0408936,0.0274658,0.0256348,0.0204468,0.0125122,0.0231934,0.0283813,0.0250244,0.0372314,0.0256348,-0.0195312,0.0238037,0.0439453
7,0,0.0335693,-0.0192261,0.0308228,-0.00427246,0.0115967,0.0140381,0.0195312,0.0134277,0.0210571,0.0375366,-0.0238037,0.0213623,0.0387573
7,1,0.0283813,0.0402832,0.0405884,0.0268555,0.0149536,0.0152588,0.0140381,0.0192261,0.0088501,0.0161743,-0.0335693,0.0320435,0.0448608
7,2,0.0396729,0.0338745,0.0497437,0.0244141,-0.00274658,0.0201416,0.0195312,0.0265503,0.0265503,0.0186157,-0.0213623,0.0463867,0.0326538
7,3,0.0354004,0.0335693,0.0308228,0.0372314,0.0247192,0.0167847,0.020752,0.00640869,0.00640869,0.0170898,-0.0216675,0.0335693,0.0375366
7,4,0.022583,0.0323486,0.0177002,-0.00701904,0.0201416,-0.0518799,0.0164795,-0.00183105,0.0115967,0.0158691,-0.0250244,0.0247192,0.0244141
8,0,0.0250244,0.0265503,0.0189209,0.00244141,0.00701904,0.0198364,0.0219727,0.00823975,0.0149536,0.022583,-0.0509644,0.0311279,0.0253296
8,1,0.0335693,0.0286865,0.022583,0.015564,0.0198364,0.0164795,0.0360107,0.015564,0.00549316,0.0344849,-0.0262451,0.0256348,0.0549316
8,2,0.0210571,0.0375366,0.0222778,-0.00854492,0.0186157,0.00701904,0.012207,0.0115967,0.010376,0.0210571,-0.0369263,0.0415039,0.0918579
8,3,0.0201416,0.0350952,0.0183105,0.00701904,0.0241089,0.0238037,0.0238037,0.000915527,0.0152588,-0.0146484,-0.0448608,0.0247192,0.032959
8,4,0.0234985,0.0335693,0.022583,0.022583,0.0241089,0.0262451,0.0311279,0.0149536,0.00854492,0.0262451,-0.0344849,0.0311279,0.00701904
9,0,0.0323486,0.0411987,0.0250244,0.0115967,0.0317383,0.00976562,0.0146484,0.0137329,0.0115967,0.0167847,-0.038147,0.0228882,0.0323486
9,1,-0.00213623,0.0497437,0.0622559,0.0280762,0.0247192,0.0262451,0.0128174,-0.00427246,0.00976562,0.0311279,-0.0222778,0.0250244,0.0213623
9,2,0.0384521,0.0643921,0.0177002,0.00274658,0.0256348,0.0134277,0.020752,-0.0363159,0.00274658,0.0292969,-0.045166,0.0274658,0.0268555
9,3,0.022583,0.0314331,0.0186157,0.039978,0.0186157,0.027771,0.0180054,0.0299072,0.00976562,0.00762939,-0.0305176,0.0750732,0.0320435
9,4,0.0204468,0.0296021,0.0296021,0.0366211,-0.00610352,0.0311279,0.0204468,0.0585938,0.0195312,0.0180054,-0.0344849,0.0341797,0.0219727
10,0,0.032959,0.0427246,0.0271606,0.0427246,0.0100708,0.00427246,0.0308228,0.00793457,0.00274658,0.0180054,-0.0332642,0.0405884,0.0299072
10,1,0.0274658,0.0219727,0.00427246,0.0567627,0.0186157,0.010376,0.0192261,0.0186157,0.00427246,0.0244141,-0.0222778,0.0131226,0.0299072
10,2,0.0131226,0.0466919,0.0289917,0.0396729,0.0283813,0.0234985,-0.0195312,0.012207,0.0088501,0.0128174,-0.0323486,0.0335693,0.0372314
10,3,0.0326538,0.0579834,0.0357056,0.0411987,0.00518799,0.0170898,0.0164795,-0.0256348,-0.00335693,0.00457764,-0.0320435,0.0296021,0.0421143
10,4,0.038147,-0.00732422,0.0283813,0.0299072,0.00946045,0.0100708,0.00305176,0.0180054,0.00854492,0.0201416,-0.0384521,0.0338745,0.0109863
11,0,0.0427246,0.0128174,0.0360107,0.0286865,0.0363159,0.00823975,-0.0125122,0.0161743,0.0164795,0.0250244,-0.0366211,0.0161743,0.022583
11,1,0.0271606,0.0219727,0.0369263,0.0177002,0.0735474,0.015564,0.00976562,0.0350952,0.0360107,0.022583,-0.050354,0.0408936,0.022583
11,2,0.0402832,0.0216675,0.0317383,0.0088501,0.0521851,0.00915527,0.015564,-0.0436401,0.0134277,0.0244141,-0.0177002,0.0234985,0.0427246
11,3,0.0262451,0.00793457,0.0335693,0.0158691,0.0195312,0.0195312,0.0213623,0.00335693,0.0134277,0.00823975,-0.0219727,0.0238037,0.0415039
11,4,0.0390625,0.000305176,0.0305176,0.0189209,0.0289917,0.0338745,0.0296021,0.015564,0.00579834,0.00396729,-0.0213623,0.0152588,-0.0149536
12,0,0.0360107,0.0216675,0.0323486,0.00213623,0.0335693,0.0372314,0.0125122,0.0201416,0.0280762,0.0152588,-0.0378418,0.0344849,0.0341797
12,1,0.0494385,0.0280762,0.0326538,-0.0588989,0.0201416,0.0112915,0.0222778,0.010376,0.012207,0.0134277,-0.0296021,0.0213623,0.0332642
12,2,0.015564,0.0128174,0.0186157,-0.00549316,0.0308228,-0.00457764,0.00946045,0.00915527,0.00915527,0.00213623,-0.0326538,0.0537109,0.0204468
12,3,0.0241089,0.0341797,0.0918579,0.0210571,0.03479,0.0714111,0.0167847,0.0131226,0.0308228,0.0231934,-0.0115967,0.0296021,0.0112915
12,4,0.0357056,0.0393677,-0.00305176,0.0128174,0.0402832,0.0119019,0.0125122,0.015564,0.0140381,0.0186157,-0.0326538,0.0244141,0.0271606
13,0,0.0338745,0.0570679,0.0119019,0.0119019,0.0198364,0.0183105,0.0161743,0.00793457,0.0231934,0.017395,-0.0170898,0.0164795,0.0262451
13,1,0.0384521,0.0558472,0.0338745,0.0375366,0.0405884,0.0271606,0.0320435,0.0228882,0.00274658,0.00488281,-0.0341797,0.0210571,0.0296021
13,2,0.0201416,0.0552368,0.0527954,0.039978,0.038147,0.0357056,0.00610352,0.00152588,0.0238037,0.0088501,-0.0213623,0.0302124,0.0201416
13,3,0.0158691,0.0527954,0.0350952,0.0317383,0.0213623,0.0134277,0.00915527,0.010376,0.0164795,0.00946045,-0.0228882,0.0292969,0.0241089
13,4,0.0314331,0.0216675,0.0289917,0.0311279,0.0552368,0.015564,0.015564,0.0189209,0.00854492,0.0146484,-0.0259399,0.0289917,0.0299072
14,0,-0.0311279,0.0289917,0.00915527,0.0708008,0.03479,0.020752,0.0186157,0.020752,0.0238037,0.0137329,-0.0259399,0.0286865,0.0360107
14,1,0.0366211,0.0320435,0.045166,0.0552368,0.0247192,0.0311279,0.0170898,0.032959,0.00335693,0.00488281,-0.0231934,0.0317383,0.022583
14,2,0.0234985,0.0183105,0.0164795,0.06073,0.0341797,0.0341797,0.0195312,0.0186157,-0.0109863,0.0201416,-0.0262451,0.0534058,0.0424194
14,3,0.0265503,0.0402832,0.00762939,0.0415039,0.032959,0.0115967,0.0238037,0.0128174,0.0274658,0.0802612,-0.0296021,0.0234985,-0.00366211
14,4,0.0210571,0.0262451,0.0149536,0.0311279,0.0436401,0.0192261,0.0112915,0.0149536,0.0137329,0.0280762,-0.0576782,0.0390625,0.0314331
15,0,0.0241089,0.0250244,-0.0219727,0.0396729,0.0335693,0.0732422,0.0167847,0.017395,-0.0354004,0.00488281,-0.017395,-0.0180054,0.0241089
15,1,0.0442505,0.0146484,0.0238037,0.0216675,0.0195312,0.0256348,0.00976562,0.017395,0.038147,0.0125122,-0.0241089,0.0106812,0.0378418
15,2,0.0128174,0.00610352,0.0158691,0.0167847,0.039978,0.012207,0.0292969,0.0674438,0.0192261,0.0119019,-0.0588989,0.027771,0.0332642
15,3,0.078125,0.00671387,0.0259399,0.0100708,0.038147,0.0259399,0.0106812,0.0189209,0.0231934,-0.00976562,-0.0137329,0.0216675,0.0283813
15,4,0.03479,0.0375366,0.0280762,0.0314331,0.0164795,0.0262451,0.0286865,0.0128174,0.0354004,0.00366211,-0.0128174,0.0280762,0.015564
16,0,0.00762939,0.039978,0.0161743,0.0180054,0.0354004,0.0195312,0.0146484,-0.00762939,0.00488281,0.0210571,-0.0244141,0.0222778,0.010376
16,1,0.0180054,0.0222778,0.015564,-0.00335693,0.0421143,0.0314331,0.00915527,0.00823975,0.0500488,0.0259399,-0.0161743,0.055542,0.0488281
16,2,0.00762939,0.0384521,0.0256348,0.010376,0.0268555,0.012207,0.0253296,0.00701904,0.0268555,-0.0335693,-0.022583,0.0387573,0.00854492
16,3,0.0454712,0.10437,0.0253296,0.0369263,0.0357056,0.0265503,0.0213623,-0.0198364,0.0167847,0.0192261,-0.0308228,0.0241089,0.0317383
16,4,0.0259399,0.0479126,0.0311279,0.015564,0.0411987,0.0234985,0.0308228,0.0350952,0.0106812,0.0183105,-0.0222778,0.0167847,0.0115967
17,0,0.0192261,0.0436401,0.0857544,0.0164795,0.0128174,0.0668335,0.0140381,0.0241089,0.0183105,0.020752,-0.0234985,0.0109863,0.0384521
17,1,0.0292969,0.0256348,0.0241089,-0.00305176,0.0445557,-0.0137329,0.022583,0.0201416,0.0283813,0.0137329,-0.0253296,0.0698853,0.0299072
17,2,0.0152588,0.0149536,-0.00366211,0.0289917,0.0424194,-0.00396729,0.0350952,0.0170898,0.0552368,0.0115967,-0.0234985,0.0866699,0.0286865
17,3,0.0317383,0.0305176,0.0231934,0.0289917,-0.00244141,0.0131226,0.0241089,0.0613403,0.0164795,0.0201416,-0.0241089,0.00640869,0.0244141
17,4,0.0326538,0.0259399,0.027771,-0.020752,0.0360107,0.0137329,0.0158691,0.0280762,0.0161743,0.0134277,-0.020752,0.0177002,0.0213623
18,0,0.0131226,0.0183105,0.0164795,0.0427246,0.0363159,-0.00823975,0.0234985,0.0323486,0.00854492,0.0137329,0.00762939,0.0146484,0.00640869
18,1,0.0128174,0.00366211,0.0314331,0.0335693,0.0167847,0.0262451,0.0125122,0.0296021,0.0244141,0.0234985,-0.0137329,0.0146484,0.0112915
18,2,0.0286865,0.0595093,0.0241089,0.0341797,-0.00823975,0.0372314,0.0323486,0.00701904,-0.00396729,0.0259399,-0.0143433,0.0296021,0.00152588
18,3,0.0238037,-0.0131226,0.0341797,0.0350952,0.0418091,0.038147,0.0366211,0.0137329,0.0289917,0.0198364,-0.0289917,-0.0283813,0.0308228
18,4,0.0283813,0.010376,0.000305176,0.0402832,0.0186157,0.0448608,0.0350952,0.0354004,0.0146484,0.0256348,-0.0137329,0.0201416,0.0274658
19,0,0.0088501,-0.00946045,0.0238037,0.03479,0.0259399,0.0320435,-0.017395,0.0241089,0.00946045,0.0930786,-0.0286865,0.0112915,-0.0350952
19,1,0.0210571,-0.00152588,0.0210571,0.0286865,0.0314331,0.00762939,0.0149536,0.0201416,0.0354004,0.0149536,-0.0292969,0.0250244,0.0149536
19,2,0.00915527,0.00915527,0.0234985,-0.020752,0.0332642,0.0506592,0.0582886,0.0210571,0.0134277,0.0088501,-0.0369263,0.0109863,0.0308228
19,3,0.0448608,0.00915527,0.0231934,0.000915527,0.0305176,0.0253296,0.0332642,0.0228882,0.00610352,0.0289917,-0.0198364,0.0170898,0.0115967
19,4,0.0146484,-0.00396729,0.022583,0.0112915,0.0326538,0.0296021,0.0494385,0.0231934,-0.00610352,0.0369263,-0.0247192,-0.0088501,-0.0317383
20,0,0.0335693,0.0210571,0.0418091,0.00976562,0.0296021,0.0186157,0.0326538,0.0247192,-0.0518799,0.0195312,0.00152588,0.0534058,0.0314331
20,1,0.0241089,0.0338745,-0.00244141,-0.00823975,0.0326538,-0.0112915,0.0314331,0.0308228,0.038147,0.000915527,-0.00946045,0.0527954,0.0332642
20,2,0.0250244,0.0769043,0.00640869,0.00335693,0.0408936,0.0500488,0.0350952,0.0366211,0.0180054,0.0204468,-0.0177002,0.0744629,0.0292969
20,3,0.0213623,0.0521851,0.0222778,0.000610352,0.0354004,0.0592041,0.0442505,0.0152588,0.0241089,0.015564,-0.0112915,0.0201416,0.0158691
20,4,0.0497437,0.0387573,0.0177002,-0.0476074,0.0341797,0.0354004,0.0582886,0.0296021,0.0100708,0.0784302,-0.0317383,0.0247192,0.0784302
21,0,0.0161743,0.0271606,0.0231934,0.03479,-0.0247192,0.0317383,0.0378418,-0.00854492,0.0192261,0.0170898,-0.00579834,0.0100708,0.0296021
21,1,0.000915527,0.0262451,0.0219727,0.0183105,0.0177002,0.0430298,0.0448608,0.0265503,0.0186157,0.0177002,-0.0137329,0.0119019,0.0296021
21,2,0.0140381,0.0283813,0.0427246,0.039978,0.0296021,0.0375366,0.0354004,0.0247192,0,0.0292969,-0.0152588,0.0445557,0.0195312
21,3,0.0128174,-0.010376,0.015564,0.0436401,-0.0210571,0.0411987,0.0350952,-0.0012207,0.0115967,0.00274658,-0.027771,0.0149536,0.0177002
21,4,0.0167847,0.0286865,0.0238037,0.0378418,0.0338745,0.0320435,0.0216675,0.0354004,0.0167847,-0.00366211,0.00793457,0.0131226,0.0274658
22,0,0.00823975,0.0158691,0.03479,0.0460815,0.0320435,0.0488281,0.0106812,0.0222778,0.00976562,0.015564,-0.0250244,0.0299072,0.0296021
22,1,0.0610352,0.00518799,0.0283813,0.0497437,0.0283813,0.0314331,0.0250244,0.00549316,0.00671387,0.010376,-0.0234985,0.0219727,0.0189209
22,2,0.0134277,0.0201416,0.0372314,0.0411987,0.0262451,0.0469971,0.0369263,0.0344849,-0.017395,0.00518799,-0.0158691,0.0878906,0.0280762
22,3,0.0152588,0.0186157,0.0320435,0.0415039,0.0350952,0.0482178,0.0283813,0.0296021,0.010376,0.00793457,-0.0567627,0.000915527,0.0292969
22,4,0.0137329,0.0192261,0.0302124,0.0421143,0.0134277,0.0152588,0.0320435,0.0408936,0.00854492,0.00762939,-0.0238037,0.0283813,0.022583
23,0,0.0149536,0.00946045,0.0308228,0.0415039,0.0274658,-0.0198364,0.0241089,0.0299072,0.0183105,-0.020752,-0.0204468,0.00915527,0.0201416
23,1,0.0158691,0.0088501,0.0170898,0.0158691,0.0439453,0.00396729,0.0424194,0.0265503,0.0314331,0.0100708,-0.0143433,0.0140381,0.00640869
23,2,0.0363159,0.00915527,0.0210571,0.0198364,0.032959,0.045166,0.0405884,0.0115967,0.0265503,0.0119019,-0.0140381,0.0189209,0.0210571
23,3,0.0213623,0.0280762,0.0308228,0.0167847,0.0296021,0.0259399,0.0234985,0.032959,0.0161743,0.0238037,-0.0204468,0.0164795,0.0244141
23,4,0.0012207,0.00854492,0.0326538,0.0244141,0.0283813,0.0491333,0.0308228,0.0393677,0.0201416,0.0219727,-0.0262451,-0.00671387,0.0256348
24,0,0.0305176,0.0302124,0.0598145,0.0177002,0.0326538,0.0561523,0.0366211,0.0302124,0.0244141,0.0256348,-0.022583,0.0201416,0.00640869
24,1,0.0167847,0.0106812,0.0302124,0.00549316,0.0738525,0.0210571,0.0320435,0.0302124,0.0222778,0.0408936,-0.0219727,0.0161743,0.0256348
24,2,0.012207,0.0744629,0.0262451,0.00244141,0.0408936,0.050354,0.020752,0.0177002,0.00518799,0.0363159,-0.0180054,0.00518799,0.00427246
24,3,0.00976562,-0.000305176,0.0286865,0.0106812,0.0457764,0.038147,0.0244141,0.0299072,0.0149536,0.00823975,-0.0234985,0.0177002,0.0125122
24,4,0.0149536,0.0134277,0.0421143,0.0115967,0.0296021,0.0360107,0.0402832,0.0256348,0.0183105,0.012207,-0.0137329,0.0286865,-0.0131226
25,0,-0.00457764,0.0323486,0.0241089,0.0167847,0.0177002,0.0756836,0.0305176,0.0286865,0.0698853,-0.000610352,-0.0146484,0.0341797,0.0164795
25,1,0.0128174,0.00640869,0.0146484,0.0457764,0.0396729,0.032959,0.0415039,0.0299072,0.0244141,0.0100708,-0.0585938,-0.00335693,0.0170898
25,2,0.00946045,0.00915527,0.0500488,0.0228882,0.0430298,0.0546265,0.0390625,0.0250244,0.0454712,0.000915527,-0.00305176,0.0152588,0.0204468
25,3,0.0161743,0.0280762,0.0186157,0.038147,0.0521851,0.0497437,0.0366211,0.0360107,0.0119019,-0.00579834,-0.00640869,0.00823975,0.0222778
25,4,0.0262451,0.010376,0.0219727,0.0274658,0.0424194,0.0247192,0.0195312,0.0271606,0.0259399,0.0106812,-0.0100708,0.00244141,0.0177002
26,0,0.0268555,0.00518799,0.00854492,0.0900269,0.0360107,-0.00152588,0.039978,0.0256348,0.0372314,-0.0186157,-0.0158691,0.03479,0.0268555
26,1,0.0140381,0.0192261,0.0140381,0.0485229,0.0289917,0.0338745,0.038147,0.0146484,0.0183105,-0.0576782,-0.0161743,0.00854492,0.0088501
26,2,0.000305176,-0.00274658,0.0268555,0.00915527,0.0268555,0.0354004,0.078125,0.0192261,0.0183105,-0.00946045,-0.0192261,0.00946045,0.0167847
26,3,0.0195312,0.0405884,0.0222778,0.038147,-0.0305176,0.0161743,0.0250244,0.0115967,0.022583,-0.00427246,-0.0344849,0.0131226,0.0088501
26,4,0.010376,0.0210571,0.0231934,0.043335,0.00274658,0.0305176,0.039978,0.0234985,0.0299072,0.032959,-0.0134277,0.0228882,0.00549316
27,0,0.0115967,-0.00183105,0.0161743,0.0473022,0.0427246,0.039978,0.0476074,0.0848389,0.0302124,-0.00762939,-0.0662231,0.015564,0.0219727
27,1,0.0195312,-0.00152588,0.0360107,0.0213623,0.0289917,0.0143433,0.0442505,0.0238037,-0.0567627,0.0119019,-0.0241089,0.0543213,0.00671387
27,2,-0.000305176,0.022583,0.0198364,0.0222778,0.032959,0.0363159,0.0247192,0.0183105,-0.00305176,0.000915527,-0.00610352,0.0280762,0.0213623
27,3,-0.0244141,0.00213623,0.0250244,0.0149536,0.0247192,0.0369263,0.0335693,0.050354,0.020752,0.0616455,-0.0137329,0.0164795,-0.0262451
27,4,0.0119019,0.0421143,0.0210571,0.00427246,0.0344849,0.0427246,0.032959,0.0430298,0.0219727,0.00946045,-0.022583,0.010376,0.0195312
28,0,0.0204468,0.020752,0.0167847,-0.0131226,0.0427246,0.0302124,0.0521851,0.0195312,0.0289917,0.0125122,-0.0390625,0.00549316,0.020752
28,1,0.0088501,0.0186157,0.050354,0.00640869,0.022583,0.022583,0.0350952,0.0274658,0.0149536,0.0335693,-0.0238037,0.0421143,0.0250244
28,2,0.0149536,0.00457764,0.022583,0.00518799,0.012207,0.0320435,0.0405884,0.0363159,0.0244141,0.0262451,-0.0231934,0.00915527,0.0213623
28,3,0.0201416,0.0140381,0.0161743,0.0216675,0.057373,0.0201416,0.0137329,-0.00152588,0.0274658,0.0161743,-0.022583,0.00366211,0.0195312
28,4,0.0210571,0.0326538,0.00427246,0.0186157,0.0411987,0.0268555,0.0244141,0.0210571,0.0268555,0.00183105,-0.0115967,0.00671387,0.0314331
29,0,0.0231934,-0.0115967,0.0186157,0.0119019,-0.0286865,0.03479,0.03479,0.0357056,0.0210571,0.0250244,-0.0134277,0.0149536,0.0119019
29,1,0.00335693,0.00640869,0.00854492,-0.00213623,0.020752,0.032959,0.0305176,0.0256348,0.0234985,0.00457764,-0.022583,0.00213623,0.0112915
29,2,0.0109863,0.0125122,0.0186157,0.0592041,0.0299072,0.00366211,-0.0186157,0.0195312,0.0308228,0.000610352,-0.0204468,0.0100708,0.0158691
29,3,0.0115967,0.00579834,0.0115967,0.0372314,0.0424194,0.0454712,0.0360107,0.0445557,0.0769043,0.0161743,-0.0320435,0.0268555,0.0140381
29,4,0.017395,0.00549316,0.0234985,0.032959,0.0366211,0.0308228,0.0128174,0.0396729,0.0393677,0.0213623,0.00183105,0.00793457,0.0234985
30,0,-0.00244141,0.0134277,0.0143433,0.0238037,0.0262451,0.0448608,0.0296021,0.0393677,0.0280762,0.0299072,-0.0326538,0.0201416,0.0106812
30,1,0.0247192,0.0305176,0.00701904,0.0582886,0.0228882,0.0457764,0.0323486,0.0238037,0.0314331,0.0354004,-0.015564,0.012207,0.0177002
30,2,0.0320435,0.000915527,-0.00183105,0.0588989,0.0320435,0.045166,0.017395,0.0378418,0.0292969,0.0195312,-0.0198364,0.00762939,-0.03479
30,3,0.0167847,0.0125122,0.000610352,0.0445557,0.0149536,0.00854492,0.0384521,0.0393677,0.0524902,0.0384521,-0.0164795,0.0219727,0.055542
30,4,0.0177002,0.00640869,0.00793457,0.03479,0.0424194,0.0323486,0.0292969,0.0448608,0.0265503,0.032959,-0.0341797,0.0259399,0.0143433
31,0,0.0137329,0.00366211,0.0106812,0.0170898,0.0363159,0.0692749,0.00762939,0.0335693,0.0299072,0.0469971,-0.0204468,0.017395,0.0491333
31,1,0.00793457,-0.00488281,0.0119019,0.0177002,0.0341797,0.0509644,0.038147,0.0390625,0.0509644,0.0366211,-0.0320435,0.0106812,0.0213623
31,2,0.0250244,-0.043335,0.00762939,0.00976562,0.0323486,0.0384521,0.0430298,0.0509644,0.0302124,0.0283813,-0.0213623,0.0112915,0.010376
31,3,0.00854492,0.0463867,0.0152588,-0.00152588,0.00701904,0.020752,0.0247192,0.0115967,0.0369263,0.0317383,-0.0259399,0.0344849,0.0274658
31,4,0.00152588,0.027771,0.0598145,-0.000305176,0.0341797,0.0396729,0.0274658,0.0369263,0.0430298,0.0274658,-0.0088501,0.0241089,0.0219727
32,0,-0.000305176,0.0186157,0.00701904,0.0137329,0.00701904,0.0332642,0.0363159,0.0238037,0.0558472,0.0384521,-0.0109863,0.00976562,0.0140381
32,1,0.0289917,0.0390625,0.00915527,-0.00488281,0.0201416,0.0384521,0.0390625,0.0308228,0.0372314,0.0878906,-0.0311279,0.0195312,0.0390625
32,2,0.0146484,0.0408936,0.0143433,0.00671387,0.00854492,0.027771,0.0344849,0.0866699,0.0357056,0.0460815,-0.0186157,0.0164795,0.0167847
32,3,0.0228882,0.0244141,0.0183105,0.0100708,0.0137329,0.0274658,0.03479,0.0350952,0.0311279,0.0405884,-0.0152588,0.0164795,0.0210571
32,4,0.0219727,0.00823975,0.0213623,0.0088501,0.0216675,0.0317383,0.0213623,0.020752,0.0378418,0.0521851,-0.0506592,0.0198364,0.0338745
33,0,0.0262451,0.00244141,0.0146484,0.0149536,-0.00183105,0.0292969,0.0393677,0.0411987,0.0140381,0.057373,-0.0201416,0.0253296,0.0271606
33,1,0.038147,-0.00274658,0.0140381,0.0134277,0.0115967,0.0350952,0.0286865,0.0308228,0.0393677,0.050354,0.00793457,0.012207,0.012207
33,2,0.0305176,0.0189209,0.0189209,0.0134277,0.020752,0.0344849,0.0250244,0.0460815,0.0372314,0.0421143,-0.0262451,0.0134277,0.0219727
33,3,0.0210571,-0.00183105,0.010376,0.0357056,0.0109863,0.03479,0.0396729,0.0317383,0.017395,0.0311279,-0.0137329,-0.00244141,-0.0109863
33,4,0.0231934,-0.0427246,0.0158691,0.015564,0.0088501,0.0314331,0.0283813,0.022583,0.0256348,0.0369263,-0.0280762,0.00213623,0.0140381
34,0,0.0247192,-0.00213623,0.0112915,0.0250244,0.0189209,0.0384521,-0.0186157,0.0350952,0.0283813,-0.0198364,-0.0192261,0.00976562,0.0146484
34,1,0.0231934,-0.000915527,-0.00305176,0.0372314,0.0296021,0.0189209,0.032959,0.0323486,0.0360107,0.0430298,-0.0134277,0.0125122,0.0296021
34,2,0.0244141,0.00854492,0.0234985,0.0384521,0.0195312,0.0344849,0.0341797,0.0265503,0.0769043,0.0457764,-0.022583,0.00152588,0.00305176
34,3,0.0332642,0.0210571,0.0152588,0.0323486,0.0289917,0.0741577,0.0177002,0.0332642,0.0314331,0.0323486,-0.0244141,0.0140381,0.00610352
34,4,0.0241089,0.00335693,0.0106812,0.0183105,0.050354,-0.00549316,0.0253296,0.0231934,0.0588989,0.0427246,-0.0253296,0.0323486,0.0323486
35,0,0.0170898,0.00793457,0.0100708,0.0167847,0.00579834,0.03479,0.0323486,0.0317383,0.0408936,0.0424194,-0.0131226,0.0149536,0.000915527
35,1,0.0244141,-0.00915527,0.0140381,0.0219727,0.015564,0.020752,0.0265503,0.0369263,0.0344849,0.0213623,-0.0320435,0.0317383,0.0274658
35,2,0.015564,-0.00732422,0.00762939,0.00335693,0.00518799,0.038147,-0.0338745,0.0323486,0.0372314,0.0314331,-0.0231934,0.012207,0.0180054
35,3,0.0112915,0.015564,-0.000610352,0.00915527,0.0244141,0.0204468,0.0308228,0.0741577,0.0509644,0.0372314,-0.00244141,0.00915527,0.0167847
35,4,0.00305176,0.020752,0.0170898,0.0210571,0.0204468,0.0161743,0.0192261,0.0265503,0.0302124,0.0552368,-0.0292969,0.012207,-0.0231934
36,0,0.0247192,0.0289917,0.0228882,-0.00946045,0.00762939,0.0274658,0.0286865,0.0280762,0.0415039,0.0296021,-0.0186157,0.0115967,0.0198364
36,1,0.0183105,0.0350952,0.0189209,0.00335693,0.00793457,0.0216675,0.0140381,0.0247192,0.038147,0.0338745,-0.0234985,0.0250244,0.017395
36,2,0.0152588,0.00793457,-0.0302124,0.017395,0.0186157,0.0143433,0.0109863,0.0234985,0.0323486,0.0314331,-0.0204468,0.0317383,0.032959
36,3,-0.000610352,-0.00183105,0.00579834,0.0424194,0.00244141,0.0143433,-0.00701904,0.0283813,0.0335693,0.0350952,-0.0186157,0.0268555,0.0317383
36,4,0.0271606,0.0192261,0.0250244,0.017395,0.000610352,0.0241089,0.0231934,0.0280762,0.0231934,0.0274658,-0.0283813,0.0115967,0.027771
37,0,0.0265503,0.027771,0.00335693,0.00335693,0.00335693,0.0262451,-0.0482178,0.0289917,0.0253296,0.027771,-0.0241089,0.0250244,0.0228882
37,1,-0.00610352,0.00976562,0.0119019,-0.00701904,0.00640869,0.00915527,0.0314331,0.0323486,0.0430298,0.0296021,-0.0299072,0.0241089,0.017395
37,2,0.015564,0.012207,0.00183105,0.0146484,-0.00701904,0.0137329,0.00335693,0.0344849,0.0424194,-0.0320435,-0.0167847,0.015564,-0.0366211
37,3,0.0228882,-0.00701904,0.00610352,0.0186157,0.00701904,0.0167847,0.0350952,0.0405884,0.0418091,0.0323486,-0.0204468,0.0149536,-0.0012207
37,4,0.0320435,-0.00976562,0.0234985,0.0250244,0.0131226,0.0769043,0.0146484,0.0259399,0.0845337,0.0189209,-0.0244141,0.0427246,0.0430298
38,0,0.0247192,-0.0106812,0.0100708,0.0286865,0.0216675,0.0146484,0.0308228,0.0231934,0.0430298,0.0244141,-0.00213623,0.0204468,0.0180054
38,1,0.0421143,0.0408936,0.0372314,0.0286865,0.0161743,0.0299072,0.0119019,0.020752,0.0314331,0.032959,-0.039978,0.0216675,0.0302124
38,2,0.0387573,0.0323486,0.0125122,0.0296021,0.0088501,0.039978,0.0311279,0.010376,0.0350952,0.0109863,-0.03479,0.0271606,0.0128174
38,3,0.0238037,-0.0286865,0.00823975,0.0326538,-0.0564575,0.0131226,0.027771,0.0366211,0.017395,0.0265503,-0.022583,0.00152588,0.0140381
38,4,0.0109863,0.0323486,0.0280762,0.0515747,0.012207,0.0210571,0.0158691,0.0192261,0.0112915,0.0341797,-0.0289917,0.0283813,0.0115967
39,0,0.0289917,0.0262451,-0.000610352,0.022583,-0.00457764,0.00335693,0.0250244,0.0262451,0.0256348,0.0317383,-0.0350952,0.0213623,0.017395
39,1,0.038147,0.0497437,-0.000610352,0.0177002,0.00396729,0.0320435,0.0296021,0.0332642,0.0332642,0.0421143,-0.0238037,0.0137329,0.0201416
39,2,0.0106812,0.0317383,0.0180054,0.0213623,0.00366211,0.00366211,0.020752,0.0241089,0.0250244,0.0268555,-0.0350952,0.0234985,0.0183105
39,3,0.032959,0.0341797,0.0195312,0.0137329,0.00579834,0.00854492,0.0149536,0.0158691,0.0292969,0.0552368,-0.0323486,0.0125122,0.0244141
39,4,0.065918,0.0167847,0.020752,-0.027771,0.032959,0.00579834,0.0128174,0.0308228,0.0167847,0.0210571,-0.022583,0.0140381,0.0228882
40,0,0.0262451,0.0302124,-0.0195312,-0.00488281,0.015564,0.0265503,0.0283813,0.0247192,0.0292969,0.0335693,-0.0186157,0.0177002,0.0100708
40,1,0.0170898,0.0210571,0.00213623,0.022583,0.0259399,0.0280762,0.0106812,0.0292969,0.0378418,0.0115967,-0.0256348,0.0186157,0.0241089
40,2,0.0320435,0.010376,0.0195312,0.0201416,0.020752,0.0167847,0.0186157,0.0186157,0.0268555,0.0289917,-0.0592041,0.0234985,0.0283813
40,3,0.0360107,0.0161743,0.0115967,0.0231934,0.010376,0.0192261,0.0219727,0.015564,0.0256348,0.0332642,-0.0210571,0.0537109,0.0262451
40,4,0.0369263,0.020752,0.00549316,0.0180054,0.0115967,-0.00915527,0.0286865,0.0354004,0.03479,0.0338745,-0.0238037,0.0231934,0.00305176
41,0,0.0262451,0.0149536,0.00854492,-0.00549316,-0.000610352,0.0088501,0.0259399,-0.0161743,0.043335,0.0335693,-0.0375366,0.0283813,0.0271606
41,1,0.03479,0.0112915,0.0708008,-0.000915527,0.00793457,0.00946045,0.0265503,0.0238037,0.0241089,0.0271606,-0.0219727,0.0131226,0.0204468
41,2,0.0350952,0.0186157,0.0158691,0.00854492,0.00427246,0.0170898,0.0860596,0.0213623,0.0439453,0.0552368,-0.0219727,0.0186157,0.0167847
41,3,0.032959,0.0262451,0.0527954,0.015564,0.0149536,-0.0323486,0.020752,0.0231934,0.0408936,0.0231934,-0.0302124,0.0268555,0.0286865
41,4,0.0311279,0.012207,0.0299072,0.0256348,0.0201416,-0.00213623,0.0198364,0.0299072,0.0100708,0.0198364,-0.0253296,0.0140381,0.0280762
42,0,0.0283813,0.0326538,-0.00396729,0.0253296,0.0192261,-0.0180054,0.0253296,0.0137329,0.0274658,0.0314331,-0.0317383,0.0305176,0.0286865
42,1,0.0204468,0.0317383,0.0100708,0.0317383,0.017395,0.00610352,0.0143433,-0.000610352,0.020752,0.032959,-0.0161743,0.0231934,0.0201416
42,2,0.0308228,0.0170898,0.0119019,0.0372314,0.0100708,0.00732422,0.00671387,0.0228882,0.0344849,0.0546265,-0.0308228,0.0909424,0.0238037
42,3,0.0436401,0.00640869,0.017395,0.0143433,0.010376,-0.0149536,0.0256348,0.0354004,0.0186157,0.0338745,-0.0302124,0.0228882,0.0119019
42,4,0.0180054,0.0164795,0.0183105,0.00640869,0.0198364,0.0140381,0.0234985,0.0167847,0.039978,0.0354004,0.00366211,0.0299072,0.027771
43,0,0.0198364,0.00152588,0.00793457,0.0119019,0.010376,0.00671387,0.0302124,0.0268555,0.0396729,0.0616455,-0.0253296,0.0473022,0.0244141
43,1,0.027771,0.0384521,0.0164795,0.0088501,-0.0125122,0.0134277,0.0317383,-0.0231934,0.0393677,0.0341797,-0.0341797,0.0332642,0.0338745
43,2,0.0189209,0.0354004,0.0256348,0.00579834,0.00610352,-0.00671387,0.0100708,0.0500488,0.0234985,0.0350952,-0.0256348,0.0140381,0.0271606
43,3,0.00213623,0.0271606,0.00671387,0.03479,0.0161743,-0.0137329,0.0527954,0.0289917,0.0238037,0.0671387,-0.0375366,0.0265503,0.0405884
43,4,0.0213623,0.03479,-0.017395,-0.00457764,0.000915527,0.0201416,0.0204468,0.0308228,0.0112915,0.0308228,-0.0152588,0.020752,0.0152588
44,0,0.0344849,0.0302124,0.022583,-0.022583,0.0201416,0.0201416,-0.0119019,0.0234985,0.0311279,-0.00244141,-0.0311279,0.0201416,0.0643921
44,1,0.0363159,0.0292969,0.00915527,-0.010376,0.0280762,-0.00396729,0.0186157,0.0280762,0.0408936,0.0292969,-0.0317383,0.0469971,0.022583
44,2,0.045166,0.0210571,0.0216675,-0.00305176,0.00549316,-0.000305176,0.000305176,0.0445557,0.0332642,-0.03479,-0.0247192,0.0308228,0.0772095
44,3,0.0704956,0.0283813,0.0210571,0.00305176,0.000305176,0.0128174,0.0375366,0.00946045,0.0219727,0.0411987,-0.0271606,0.0167847,0.0256348
44,4,0.0292969,-0.0158691,0.0204468,0.00854492,0.0314331,0.0137329,0.0198364,0.0247192,0.0161743,0.0317383,-0.0335693,0.0241089,0.0280762
45,0,0.0274658,0.0302124,0.0250244,0.000610352,0.0234985,-0.0100708,0.0106812,0.0234985,0.0250244,0.0341797,-0.0268555,0.0344849,0.0317383
45,1,0.0888062,0.0198364,0.0360107,0.0241089,0.0137329,-0.000610352,0.00701904,0.0262451,0.0213623,0.0308228,-0.0482178,0.0344849,-0.0219727
45,2,0.0265503,0.0186157,0.00305176,0.00671387,0.00244141,0.00793457,0.0357056,0.0357056,0.0650024,0.0250244,-0.0201416,0.0244141,0.0198364
45,3,0.0360107,0.0161743,0.0115967,0.0125122,0.0228882,0.00549316,0.0177002,0.0411987,0.0161743,0.0244141,-0.045166,0.0375366,0.0531006
45,4,0.03479,0.017395,0.0341797,0.0253296,0.012207,-0.0012207,0.0177002,0.0308228,0.0012207,0.0268555,-0.0338745,0.0280762,0.0378418
46,0,0.0418091,0.0112915,0.0204468,0.032959,0.0210571,0.0195312,0.0186157,0.0384521,0.0244141,0.0314331,-0.0335693,0.0228882,0.027771
46,1,0.0253296,0.0128174,0.038147,0.0360107,0.0262451,-0.00274658,0.0204468,-0.00762939,0.022583,0.0515747,-0.0268555,0.0234985,0.0311279
46,2,0.072937,-0.0088501,0.0213623,0.0448608,0.0338745,0.0100708,0.00579834,0.0177002,0.0234985,0.00976562,-0.0372314,0.0469971,0.0311279
46,3,0.0299072,0.0314331,0.0183105,0.0265503,0.0598145,0.00457764,0.0177002,0.0259399,0.0305176,0.0302124,-0.0299072,0.0146484,0.0198364
46,4,0.0189209,0.0201416,0.0338745,0.0219727,0.0112915,0.00579834,0.0302124,0.0314331,0.00976562,0.043335,-0.0341797,0.0204468,0.0265503
47,0,0.0274658,0.0289917,0.0204468,0.0772095,0.0411987,0.0195312,0.0314331,0.0158691,0.0210571,-0.00793457,-0.0265503,0.0286865,0.032959
47,1,0.0357056,0.0296021,0.0198364,0.0296021,-0.00183105,0.0088501,0.0167847,0.0305176,0.017395,0.0262451,-0.0561523,0.0286865,0.0241089
47,2,-0.0128174,0.0299072,0.0204468,0.0140381,0.00976562,0.0234985,0.0137329,0.0152588,0.0164795,0.0189209,-0.0296021,0.0360107,0.0231934
47,3,0.0393677,0.0280762,0.0302124,-0.012207,0.017395,0.00579834,-0.0292969,0.0134277,0.00732422,-0.0222778,-0.0186157,0.0405884,-0.00244141
47,4,0.0402832,0.0283813,0.0192261,-0.0112915,0.0216675,0.00518799,0.0308228,0.0247192,0.0177002,-0.010376,-0.0292969,0.0234985,0.0418091
48,0,0.0427246,0.0311279,0.0408936,-0.00152588,0.0152588,0.039978,0.012207,0.0244141,0.0524902,0.0332642,-0.027771,0.0247192,0.0357056
48,1,0.0302124,0.027771,-0.0137329,0.0189209,0.0369263,0.0134277,0.0183105,-0.000915527,0.0152588,0.0125122,-0.0350952,0.0311279,0.043335
48,2,0.043335,0.0308228,0.0186157,0.00732422,0.0140381,0.0158691,0.0274658,0.032959,0.0268555,0.00579834,-0.0262451,0.027771,0.0231934
48,3,0.043335,0.0344849,-0.0387573,-0.00610352,0.0183105,0.0640869,0.0250244,0.0213623,0.0393677,0.00671387,-0.0360107,0.0341797,0.0543213
48,4,0.0189209,0.0314331,0.0195312,-0.00244141,0.0228882,0.0253296,-0.0183105,0.0213623,0.0115967,0.0299072,-0.0158691,0.022583,0.027771
49,0,0.0283813,0.0341797,0.0216675,0.0204468,0.0317383,-0.00152588,0.0100708,0.0320435,0.00549316,0.0296021,-0.0592041,0.0228882,0.0360107
49,1,0.0289917,0.0177002,0.0204468,0.0140381,0.00183105,0.012207,0.020752,0.0408936,0.0292969,0.0460815,-0.0436401,0.0335693,0.0265503
49,2,0.0259399,0.0198364,0.0299072,-0.000305176,0.0320435,0.0158691,0.0106812,0.0177002,0.0183105,0.0482178,-0.0299072,0.0259399,0.0314331
49,3,0.0250244,0.0241089,0.0228882,0.043335,0.0143433,0.0216675,0.0177002,0.0259399,0.00976562,0.010376,-0.0357056,0.0698853,0.0396729
49,4,0.0299072,0.0164795,-0.022583,0.0396729,0.0088501,0.0158691,0.0201416,0.015564,0.0198364,0.0213623,-0.00640869,0.0305176,0.0469971
50,0,0.0323486,0.0363159,0.0320435,0.0238037,-0.0177002,0.0195312,0.000915527,0.0332642,0.0192261,0.0311279,-0.0238037,0.0219727,0.0405884
50,1,0.00671387,0.0305176,0.0216675,0.107422,0.0317383,0.0140381,0.0805664,0.0198364,0.0469971,0.0793457,-0.0332642,0.0592041,0.0146484
50,2,0.0848389,0.0167847,0.0131226,0.0521851,0.0152588,0.0299072,0.00457764,0.0247192,0.0186157,0.0320435,-0.0280762,0.0268555,0.0332642
50,3,0.0189209,0.0177002,0.0320435,0.0161743,0.0338745,0.032959,0.0186157,0.0219727,0.0241089,0.0430298,-0.0268555,0.0167847,0.0418091
50,4,0.0427246,0.043335,0.0344849,0.0463867,0.0128174,0.00946045,0.0189209,0.0088501,0.0198364,0.0228882,-0.00488281,0.0408936,0.032959
51,0,0.0396729,0.0384521,0.0283813,0.0418091,0.0289917,0.0231934,0.0167847,0.0366211,0.0170898,0.010376,-0.0231934,0.0247192,0.0341797
51,1,0.0283813,0.0335693,0.0250244,0.0357056,0.0189209,0.0134277,0.0292969,0.0152588,0.0134277,0.0231934,-0.0265503,0.0338745,0.0296021
51,2,0.039978,0.032959,0.0286865,0.0299072,0.0259399,0.00915527,0.0164795,0.0253296,0.0213623,0.0195312,-0.0402832,0.0244141,0.0216675
51,3,0.0384521,0.0405884,0.020752,0.0314331,0.0262451,0.0311279,0.0738525,0.0259399,0.0253296,0.0320435,-0.0436401,0.0170898,0.043335
51,4,0.0338745,0.0286865,0.0521851,0.0244141,0.0430298,0.0375366,0.0210571,0.00854492,0.0616455,0.0186157,-0.0268555,0.0689697,0.0228882
52,0,0.038147,0.0485229,0.0411987,0.00274658,0.0228882,-0.000305176,0.0140381,0.0201416,-0.00183105,0.0265503,-0.0344849,0.0354004,0.0119019
52,1,0.0421143,0.0454712,0.0415039,0.0299072,0.0247192,0.0128174,0.0131226,0.0152588,0.0866699,0.0299072,-0.0354004,0.0509644,0.0430298
52,2,0.0299072,0.0360107,0.00671387,-0.00976562,0.0137329,0.0164795,0.0115967,0.0244141,0.0631714,0.0164795,-0.0311279,0.0427246,0.0323486
52,3,0.0161743,0.0317383,0.0250244,0.0274658,0.0112915,0.0192261,0.0195312,0.00640869,0.0280762,-0.0234985,-0.0268555,0.0344849,0.00946045
52,4,0.0317383,0.0299072,0.0338745,-0.00640869,0.0189209,0.00244141,0.00427246,0.0253296,0.0177002,0.0363159,-0.027771,0.0378418,0.0286865
53,0,0.0198364,0.0314331,0.0256348,0.00762939,0.03479,0.00152588,0.0436401,0.0146484,0.03479,-0.0161743,-0.0350952,0.0424194,0.0354004
53,1,0.0512695,0.0387573,0.0244141,0.0198364,0.0296021,0.0180054,0.0140381,0.00152588,0.0152588,0.022583,-0.0317383,0.0289917,0.043335
53,2,0.0488281,0.0274658,0.050354,-0.0311279,0.0204468,0.000610352,0.0228882,0.0119019,0.0125122,0.0286865,0.0177002,0.0421143,0.0473022
53,3,0.0363159,0.0494385,0.0189209,0.0408936,0.0186157,0.0134277,0.0234985,0.0088501,0.0167847,0.0241089,-0.0357056,0.0332642,0.0292969
53,4,0.0302124,-0.0134277,0.0244141,0.0506592,0.0778198,0.0152588,0.0195312,0.017395,0.0167847,0.0213623,-0.0509644,0.0216675,0.0375366
54,0,0.020752,0.0308228,0.0238037,0.0494385,0.0238037,0.0515747,0.0210571,0.0177002,0.0250244,0.00854492,-0.0320435,0.0360107,0.022583
54,1,-0.0170898,0.010376,0.0357056,0.0488281,0.0250244,0.0262451,0.0238037,0.0201416,0.00976562,0.0140381,-0.0149536,0.0308228,0.0274658
54,2,0.00152588,0.0109863,-0.0280762,0.0534058,0.0250244,-0.0131226,0.0256348,0.0012207,0.0643921,0.0265503,-0.0314331,0.0448608,0.027771
54,3,0.043335,0.0170898,0.00823975,0.0543213,0.0469971,0.0274658,0.0396729,0.0137329,0.0259399,-0.0543213,-0.0228882,0.027771,0.0164795
54,4,0.0338745,0.0286865,0.0234985,0.0134277,0.0149536,0.0265503,0.0375366,0.0180054,0.0149536,0.0234985,-0.0384521,0.0161743,0.0274658
55,0,0.0137329,0.0280762,0.03479,0.136719,0.0311279,0.0183105,0.0369263,0.0143433,0.0222778,0.0430298,-0.0323486,0.0363159,0.0296021
55,1,0.0402832,0.0311279,-0.00213623,0.0598145,0.03479,0.0289917,0.020752,0.0146484,0.0222778,-0.0201416,-0.0628662,0.0302124,0.0250244
55,2,0.0286865,0.0222778,0.0357056,0.0244141,0.0262451,0.0515747,0.0177002,0.0271606,0.0753784,0.0088501,-0.0421143,0.0421143,0.0302124
55,3,0.0204468,0.0549316,0.0332642,0.0210571,0.0170898,0.0335693,0.0448608,0.0198364,0.0238037,0.0158691,-0.0289917,0.0204468,0.03479
55,4,0.0222778,0.0445557,0.0271606,0.0183105,0.0283813,0.039978,0.0320435,0.0204468,0.0415039,0.012207,-0.0338745,0.00976562,0.0283813
56,0,0.0149536,0.0857544,0.0274658,0.0234985,0.0558472,0.0265503,0.017395,0.0582886,0.0186157,0.0289917,-0.0375366,0.0344849,0.0296021
56,1,0.0311279,-0.0228882,0.0335693,0.0100708,0.0308228,0.0302124,0.0241089,0.0167847,0.0360107,0.0283813,-0.0253296,0.0198364,0.032959
56,2,0.0280762,0.0500488,0.0271606,0.0158691,0.0271606,0.0424194,0.00732422,0.010376,0.022583,0.0234985,-0.0262451,0.0857544,0.0320435
56,3,0.0241089,0.0299072,0.0302124,0.0128174,0.0180054,0.039978,0.00976562,0.0201416,0.032959,0.0317383,-0.0213623,0.0311279,0.0140381
56,4,0.0204468,0.0283813,0.0689697,0.00335693,0.0204468,0.0704956,0.0244141,0.0177002,0.057373,0.0274658,-0.0244141,0.0415039,0.0213623
57,0,0.03479,0.0631714,0.0332642,0.010376,0.0717163,0.0350952,0.015564,0,0.0320435,0.0119019,-0.0286865,0.0302124,0.0354004
57,1,0.0302124,0.0106812,0.0701904,0.0183105,0.022583,0.0109863,0.0088501,0.0137329,0.0271606,0.0308228,-0.0283813,0.0112915,0.0369263
57,2,-0.0137329,0.00640869,0.0338745,0.0531006,0.0164795,0.0405884,0.0219727,0.0152588,0.00823975,0.032959,-0.020752,0.0186157,0.0341797
57,3,0.0286865,0.0195312,0.0338745,0.0161743,0.0210571,0.0283813,-0.00732422,0.00610352,0.00366211,0.0323486,-0.0350952,0.0302124,0.0219727
57,4,0.0402832,0.0741577,0.0350952,0.0405884,0.0689697,0.0341797,0.0189209,0.00183105,0.0167847,0.0271606,-0.0335693,0.00488281,0.0268555
58,0,0.032959,0.0271606,0.0280762,0.0387573,0.0323486,0.0012207,0.0146484,0.0640869,0.00396729,0.0186157,0.00518799,0.0283813,0.0314331
58,1,0.0314331,0.0421143,0.0415039,0.0323486,0.0143433,0.0231934,0.022583,0.00762939,0.022583,0.0305176,-0.0192261,-0.0302124,0.0387573
58,2,0.00671387,0.0268555,0.0366211,0.0363159,0.0234985,0.0250244,0.0286865,0.0219727,0.0088501,0.0262451,-0.0222778,0.0256348,0.0244141
58,3,0.0219727,0.0247192,0.0469971,0.039978,0.020752,0.038147,0.0228882,0.0238037,-0.000915527,0.020752,-0.0222778,0.0234985,0.0210571
58,4,0.0335693,0.0332642,0.0292969,0.0360107,0.0183105,0.0326538,0.0183105,0.0262451,0.00976562,0.0177002,-0.0131226,0.0259399,0.0820923
59,0,0.0186157,0.0189209,0.0195312,0.0357056,0.0192261,0.0308228,-0.0186157,0.0317383,0.00701904,-0.0183105,-0.0262451,0.020752,0.0372314
59,1,0.00488281,0.020752,0.0289917,0.0387573,0.0128174,0.0317383,-0.00640869,0.000610352,0.0100708,0.0256348,-0.0350952,0.0234985,0.0100708
59,2,0.0219727,0.010376,0.0650024,0.0308228,0.0323486,0.0698853,0.0357056,0.0195312,0.0479126,0.022583,-0.015564,0.0405884,0.0457764
59,3,0.0265503,0.0131226,0.0289917,0.0137329,0.0186157,0.0292969,0.0186157,0.022583,0.017395,0.0180054,-0.0164795,0.0268555,0.0238037
59,4,-0.0189209,0.0366211,0.0311279,0.0143433,0.0201416,0.0228882,0.0012207,0.0143433,0.00823975,0.012207,-0.0259399,0.0195312,0.0408936
60,0,0.0326538,0.0204468,0.032959,0.00610352,0.022583,0.0775146,0.0289917,0.0204468,0.0231934,0.0183105,-0.0234985,-0.012207,0.0195312
60,1,0.0180054,0.0152588,0.0238037,0.00671387,0.0228882,0.027771,0.0195312,0.00366211,0.0161743,0.0222778,-0.0192261,0.0192261,0.0311279
60,2,0.0143433,0.0299072,0.0357056,-0.00213623,0.0152588,0.0131226,0.0500488,0.0320435,0.0262451,0.0106812,-0.0241089,0.0253296,0.0228882
60,3,0.017395,0.00366211,0.0210571,0.00640869,-0.0201416,0.0570679,0.0238037,0.00854492,0.0228882,0.0250244,-0.0234985,0.0357056,0.0332642
60,4,0.0289917,0.0427246,0.0326538,0.00305176,-0.0430298,0.0405884,0.020752,0.00244141,0.0292969,0.0195312,-0.0137329,0.03479,0.0250244
61,0,0.00610352,0.0369263,0.0311279,0.015564,0.0164795,0.0283813,0.0357056,0.0201416,0.00244141,0.0125122,-0.017395,0.0170898,0.0222778
61,1,0.0479126,0.0402832,0.0378418,0.0128174,0.0238037,0.0262451,0.0204468,0.00610352,0.0170898,0.00640869,-0.0637817,0.0228882,0.0238037
61,2,0.0149536,0.0564575,0.065918,0.0308228,0.0289917,0.0112915,0.012207,0.0152588,0.0177002,0.00823975,-0.020752,0.022583,0.0396729
61,3,0.00305176,0.0286865,0.0408936,0.0442505,0.0201416,0.0302124,0.0296021,0.0247192,0.0222778,0.050354,-0.032959,0.0146484,0.0299072
61,4,0.0119019,0.0305176,0.0469971,0.0360107,0.0228882,-0.0219727,0.0247192,0.0183105,0.0839233,0.0283813,-0.0115967,-0.0222778,0.0213623
62,0,0.0192261,0.0109863,0.0308228,0.0418091,0.0311279,0.0274658,0.0253296,0.0302124,0.00274658,0.00549316,-0.0588989,0.0164795,0.0317383
62,1,-0.0357056,0.0274658,0.0314331,0.0341797,0.0338745,0.0280762,0.0231934,0.0216675,0.0146484,0.0210571,-0.020752,0.0128174,0.0201416
62,2,0.0161743,0.020752,0.0393677,0.0415039,0.0183105,0.00579834,0.0167847,0.0164795,0.0244141,0.0292969,-0.0186157,0.0378418,0.0119019
62,3,0.0231934,-0.0244141,0.0216675,0.0616455,0.0482178,-0.0012207,0.00823975,0.0149536,0.0582886,0.0238037,-0.0268555,0.0286865,0.015564
62,4,0.0137329,0.0244141,0.0308228,0.0393677,0.0167847,0.0350952,0.0268555,0.0268555,0.00427246,0.0262451,-0.0143433,0.0213623,0.0253296
63,0,0.0146484,0.0167847,0.0976562,0.0436401,0.0216675,0.00946045,0.0201416,0.0250244,0.0164795,0.0128174,-0.0283813,0.0268555,0.00793457
63,1,0.000305176,0.00396729,0.0378418,0.0335693,0.0161743,0.0286865,0.0244141,0.022583,-0.00213623,-0.0265503,-0.0128174,0.0241089,-0.0177002
63,2,0.0195312,0.0192261,0.00274658,0.0280762,0.0344849,0.103149,0.022583,0.000915527,0.0674438,0.0241089,-0.015564,0.038147,0.0262451
63,3,0.0183105,0.00793457,0.0466919,0.0192261,0.0241089,0.0170898,0.032959,0.0198364,0.0183105,0.015564,-0.0247192,0.0289917,0.00518799
63,4,0.012207,-0.00701904,0.0320435,0.0238037,0.0375366,0.0317383,0.0384521,-0.0231934,0.0299072,0.0161743,-0.0149536,0.0131226,0.00976562
64,0,0.0189209,0.0134277,0.0265503,0.0213623,0.0317383,0.0360107,0.0231934,0.0219727,0.0256348,0.010376,-0.0161743,0.0241089,0.0265503
64,1,0.0137329,0.0244141,0.0177002,0.00946045,0.0247192,0.0335693,0.0286865,0.0140381,0.0115967,0.0283813,-0.0143433,0.0253296,0.0387573
64,2,0.0262451,0.0424194,0.0250244,0.0234985,0.0521851,0.0299072,0.0317383,0.020752,0.0149536,-0.00427246,-0.0180054,0.0326538,0.0274658
64,3,0.0405884,0.0164795,0.0186157,-0.00183105,0.0305176,0.0338745,0.0341797,0.0350952,0.00610352,0.015564,-0.0149536,0.0247192,0.0308228
64,4,0.017395,0.00152588,0.0222778,0.0112915,0.0524902,0.0393677,0.0372314,0.0158691,0.0222778,0.0177002,-0.00396729,0.0198364,0.00762939
65,0,0.0198364,0.0283813,0.0204468,0.0231934,0.0222778,0.0326538,0.0247192,0.0357056,0.0100708,0.0137329,-0.0494385,0.0195312,0.0289917
65,1,0.0250244,0.0500488,0.020752,0.0274658,0.0088501,0.0222778,0.0326538,0.0112915,0.0326538,0.010376,-0.0192261,0.0201416,0.0317383
65,2,0.0134277,0.0463867,0.0344849,0.0186157,0.0231934,0.0405884,-0.0164795,0.0186157,0.0149536,0.0509644,-0.0128174,0.0140381,0.0558472
65,3,0.0128174,0.0323486,0.0219727,0.0241089,0.0369263,0.0857544,0.0289917,0.015564,0.057373,0.0158691,-0.0222778,0.0366211,0.0210571
65,4,0.00366211,0.0198364,0.0311279,0.0442505,0.0244141,0.0262451,0.0271606,0.0134277,0.0140381,0.0317383,-0.0131226,0.0210571,0.0778198
66,0,0.0149536,0.0802612,0.0344849,0.0445557,0.0292969,0.0390625,0.0415039,0.0259399,0.0158691,0.015564,-0.0268555,0.00915527,0.0143433
66,1,0.0143433,0.0604248,0.0256348,0.0567627,0.0402832,0.0253296,0.0149536,0.012207,0.000915527,-0.0247192,-0.0186157,0.0256348,0.067749
66,2,-0.0234985,0.0366211,0.0369263,0.0994873,0.0280762,0.0341797,0.0332642,0.03479,0.00823975,0.0112915,-0.0100708,0.0338745,0.0250244
66,3,0.0219727,0.0210571,0.015564,0.0543213,-0.0204468,0.0283813,0.0320435,0.0302124,0.0131226,0.0152588,-0.0170898,0.0167847,0.00427246
66,4,0.0247192,0.0360107,0.0265503,0.0610352,0.0411987,0.0305176,0.0234985,0.0262451,0.0149536,0.0137329,-0.0256348,0.0408936,0.0253296
67,0,0.0820923,0.0308228,0.0183105,0.043335,0.03479,0.032959,0.0149536,0.0231934,0.0183105,0.0531006,-0.0463867,0.0146484,-0.0268555
67,1,0.0152588,0.0137329,0.0183105,0.0421143,0.0372314,0.0454712,0.0231934,0.0228882,0.0720215,0.0143433,-0.0231934,-0.0549316,-0.0012207
67,2,0.00762939,0.0177002,0.050354,0.0228882,0.0186157,0.0338745,0.0335693,0.0140381,0.0180054,0.0265503,-0.0219727,0.00579834,-0.012207
67,3,0.0115967,0.0289917,0.0210571,0.0253296,0.0219727,0.0518799,0.032959,0.022583,0.0274658,0.0167847,-0.00793457,0,0.0271606
67,4,0.020752,0.0311279,0.0161743,0.0274658,0.0390625,0.0292969,0.0241089,0.0146484,0.0137329,-0.010376,-0.00793457,0.00396729,0.0332642
68,0,0.0109863,0.0357056,0.0189209,0.0131226,0.0350952,0.0265503,0.0332642,0.0363159,0.0216675,0.00335693,-0.0442505,0.0112915,0.0338745
68,1,0.00396729,0.0219727,0.0241089,0.0430298,0.0186157,0.0360107,0.0299072,0.0158691,0.0195312,0.0149536,-0.00854492,0.0210571,0.0125122
68,2,0.0167847,0.0259399,0.0289917,0.0109863,-0.00274658,0.0292969,0.0317383,0.0234985,0.0262451,0.017395,-0.0204468,0.022583,-0.00457764
68,3,0.00305176,-0.000305176,0.0317383,0.00976562,0.0354004,0.0213623,0.0427246,0.0274658,0.0241089,0.0125122,-0.0198364,0.0302124,0.0268555
68,4,0.0140381,0.0152588,0.0265503,0.0234985,0.0268555,0.0268555,-0.0131226,0.0335693,0.0167847,0.0198364,-0.0262451,0.00946045,-0.0119019
69,0,0.0140381,0.0302124,0.0125122,0.0210571,0.0158691,0.0222778,0.0314331,0.0772095,0.0180054,0.0183105,-0.0170898,0.0112915,0.032959
69,1,-0.00244141,0.0149536,0.0180054,0.0714111,0.0271606,0.0137329,0.0512695,0.0164795,0.0170898,0.00671387,-0.0283813,0.027771,0.0192261
69,2,0.00610352,-0.00579834,0.0222778,-0.00366211,0.0234985,0.0335693,0.0360107,0.0357056,0.0280762,0.0390625,-0.0268555,0.012207,0.0177002
69,3,0.0201416,0.0140381,-0.0527954,0.0247192,0.0320435,0.0430298,0.022583,0.0311279,0.0195312,0.0390625,-0.015564,0.017395,0.0161743
69,4,0.0115967,0.00946045,0.032959,0.0393677,0.038147,0.0283813,0.0201416,0.0180054,0.0643921,0.0222778,-0.0244141,-0.017395,0.0140381
70,0,0.0149536,0.00366211,0.0839233,0.0387573,0.0344849,-0.0100708,0.0299072,0.0247192,0.0192261,0.0161743,-0.0167847,0.00640869,0.0201416
70,1,0.0137329,0.0183105,0.0256348,0.0408936,0.0302124,0.0265503,0.0366211,0.00915527,0.0198364,0.020752,-0.0238037,0.020752,0.00640869
70,2,0.0170898,0.000610352,-0.0204468,0.0512695,0.0402832,-0.0238037,0.022583,0.0271606,0.0650024,0.0088501,-0.0106812,0.0283813,0.0204468
70,3,0.00152588,0.00305176,0.0317383,0.0588989,0.0262451,0.0286865,0.0350952,0.032959,0.0320435,-0.0265503,-0.0186157,0.0213623,0.0247192
70,4,0.0396729,0.0134277,0.00396729,0.0494385,0.0427246,0.0256348,0.0292969,0.0421143,0.0250244,0.0088501,0.0292969,0.00762939,0.00244141
71,0,0.0131226,0.0180054,0.0100708,0.0540161,0.0183105,0.0302124,0.0378418,-0.0228882,0.00732422,0.0134277,-0.0106812,0.0292969,0.0231934
71,1,0.0152588,0.00274658,0.0296021,0.0283813,0.0363159,0.0201416,0.0308228,0.0247192,0.0170898,0.0128174,-0.0201416,0.00579834,0.0262451
71,2,0.027771,0.0430298,0.0134277,0.0265503,0.0296021,0.0247192,0.0357056,0.0241089,0.0286865,0.0146484,-0.0238037,0.00793457,0.0177002
71,3,0.0149536,-0.00427246,0.0250244,0.0219727,0.0488281,0.0164795,0.0256348,0.0189209,0.0149536,0.0112915,-0.0192261,0.0311279,0.0250244
71,4,0.0149536,0.0112915,0.0265503,0.00671387,0.0253296,0.0317383,0.0357056,0.0332642,0.0323486,0.0183105,-0.0244141,0.00671387,0.0161743
72,0,0.00579834,0.00579834,0.0216675,0.0296021,0.0360107,0.00976562,-0.00244141,0.032959,0.0344849,-0.020752,-0.0177002,0.0180054,-0.0558472
72,1,0.0158691,0.0186157,0.0106812,-0.0305176,0.017395,0.0250244,0.0115967,0.0485229,0.022583,0.022583,-0.0274658,0.0125122,0.0177002
72,2,0.015564,0.03479,0.0192261,-0.0106812,0.0164795,0.0180054,0.0161743,0.0204468,0.0234985,0.00671387,-0.00915527,0.010376,0.0161743
72,3,-0.0326538,0.0488281,0.0198364,0.015564,0.0234985,0.0411987,0.0198364,0.0256348,0.0161743,0.0231934,-0.0482178,0.0231934,0.0338745
72,4,0.0198364,0.0283813,0.00427246,0.020752,0.0247192,0.0222778,0.0350952,0.0595093,0.0137329,0.0292969,-0.0256348,0.0170898,0.00518799
73,0,0.0314331,0.0338745,0.0286865,0.0161743,0.027771,0.0527954,0.0323486,0.0366211,0.038147,0.0271606,-0.0253296,0.0146484,0.0109863
73,1,0.0619507,0.0125122,0.0253296,0.0222778,0.0375366,0.0177002,0.022583,0.0134277,0.00762939,0.0253296,-0.0341797,0.0115967,0.0256348
73,2,0.0198364,0.0323486,0.0134277,0.0396729,0.0201416,0.0216675,0.0231934,0.0250244,0.0204468,0.0115967,-0.0244141,0.0146484,-0.0088501
73,3,0.0405884,0.020752,0.0787354,0.0509644,0.0311279,0.0900269,0.0146484,0.0250244,0.0842285,0.0177002,-0.0152588,0.0811768,0.038147
73,4,0.0128174,0.000610352,0.0109863,0.0302124,0.0283813,0.0384521,0.0454712,0.0259399,0.0158691,0.00457764,-0.0201416,-0.000610352,0.020752
74,0,0.0198364,0.0311279,0.0149536,0.0350952,0.0622559,0.00579834,0.0265503,0.0152588,0.0268555,0.0302124,-0.0137329,-0.020752,0.0140381
74,1,0.0250244,0.010376,0.00213623,0.0549316,0.0128174,0.0241089,0.0143433,0.0256348,0.0296021,0.0115967,-0.0140381,-0.0198364,0.0189209
74,2,0.0119019,0.0180054,0.0146484,0.0619507,0.0192261,0.0256348,0.0201416,0.0268555,0.0238037,0.0192261,-0.0115967,0.00213623,0.0265503
74,3,0.0238037,0.0137329,0.00610352,0.0488281,0.00457764,0.0424194,0.0384521,0.0436401,0.0308228,0.0222778,-0.0253296,0.0311279,0.0244141
74,4,0.015564,0.00549316,0.00305176,0.0350952,0.0201416,0.0253296,0.0311279,0.0430298,0.0274658,0.0302124,-0.0152588,0.0149536,-0.0323486
75,0,0.0881958,0.0119019,0.0189209,0.0418091,0.0286865,0.0549316,0.0372314,0.020752,0.0195312,0.0280762,-0.0314331,0.0125122,0.0286865
75,1,0.0125122,0.00671387,0.0180054,0.0323486,0.0119019,0.0283813,-0.0106812,0.0296021,0.0262451,0.0714111,-0.0283813,0.015564,0.0183105
75,2,0.0177002,0.00549316,0.0012207,0.0186157,0.0299072,0.00671387,0.0488281,0.0390625,0.0292969,0.0320435,-0.015564,0.0213623,0
75,3,0.0177002,0.00549316,0.032959,0.0195312,0.0195312,0.0314331,0.0473022,0.0427246,0.0134277,0.0204468,-0.0012207,0.00549316,0.0100708
75,4,0.010376,0.0320435,0.0216675,-0.0012207,0.0228882,0.0204468,0.0341797,0.0146484,0.0457764,0.0372314,-0.0231934,-0.0250244,0.0158691
76,0,0.0762939,0.00610352,0.0195312,0.0543213,0.022583,0.0219727,0.0198364,0.0393677,0.0286865,0.0296021,-0.0149536,0.0186157,0.0146484
76,1,0.0280762,-0.0216675,0.000915527,0.00457764,0.0292969,0.0482178,0.0296021,0.0296021,0.0741577,0.0177002,-0.0204468,-0.0119019,-0.00183105
76,2,0.038147,0.00213623,0.0152588,-0.00457764,0.03479,0.0161743,0.0180054,0.0256348,0.0189209,0.0610352,-0.0177002,0.0228882,0.062561
76,3,0.0231934,0.015564,0.010376,-0.00915527,0.0213623,0.0430298,0.0427246,0.0305176,0.0311279,0.0402832,-0.0170898,0.010376,0.0152588
76,4,0.032959,0.0183105,0.00823975,0.00732422,0.0396729,0.0213623,-0.00793457,0.0311279,0.0274658,0.0387573,-0.0195312,0.00701904,-0.0192261
77,0,-0.00579834,0.00762939,0.0177002,-0.0354004,0.0311279,0.0292969,-0.0198364,0.0238037,0.0308228,-0.0543213,0.0161743,0.0152588,-0.0149536
77,1,0.0210571,0.0106812,-0.00671387,0.00305176,0.0167847,-0.00854492,0.0238037,0.0357056,0.00762939,0.0195312,-0.0222778,-0.0210571,0.00701904
77,2,-0.0158691,0.0244141,0.0100708,-0.0149536,0.0402832,0.0332642,0.032959,0.0280762,0.0265503,0.0222778,-0.0292969,0.0146484,0.0210571
77,3,0.0265503,0.00671387,-0.00152588,0.0256348,0.0228882,0.032959,0.0357056,0.0448608,0.0250244,0.0396729,-0.0302124,0.00823975,0.0137329
77,4,0.0262451,-0.0314331,-0.0140381,0.0222778,0.00701904,0.0497437,0.0292969,0.0186157,0.0521851,0.0201416,-0.0286865,0.0311279,0.0158691
78,0,0.0228882,0.03479,0.0311279,0.0268555,0.0012207,0.0131226,0.0164795,0.0460815,0.0360107,0.0228882,-0.0283813,0.0177002,0.0152588
78,1,0.0158691,0.0189209,0.0146484,0.0149536,0.055542,0.0161743,0.0302124,0.0518799,0.0247192,0.0302124,-0.017395,0.00427246,0.0146484
78,2,0.0247192,0.0720215,0.0112915,0.0457764,0.0289917,0.0296021,0.032959,0.0259399,0.0335693,0.0131226,-0.0204468,0.0302124,0.0228882
78,3,0.0143433,0.0244141,-0.0115967,0.0296021,-0.00457764,0.067749,0.0302124,0.00762939,0.0506592,0.0271606,0.00152588,0.00518799,0.00488281
78,4,0.0231934,0.0231934,0.0128174,0.020752,-0.0115967,0.0302124,0.0244141,0.0839233,0.0369263,0.0369263,-0.0180054,0.0158691,0.0335693
79,0,0.0234985,0.0198364,0.00610352,0.0250244,0.0259399,0.0177002,0.0219727,0.0436401,0.0393677,0.0109863,-0.0213623,0.0289917,0.0354004
79,1,0.0445557,0.0115967,0.0177002,0.0765991,0.0350952,0.0262451,-0.0259399,0.0476074,0.0250244,0.022583,-0.0372314,0.0137329,0.010376
79,2,0.0247192,0.0149536,0.0106812,0.0247192,0.0088501,0.0341797,0.0274658,0.0344849,0.0320435,0.0326538,-0.0262451,-0.00671387,0.0250244
79,3,0.0360107,0.0476074,0.0183105,0.0125122,-0.0369263,0.017395,0.0219727,0.0714111,0.0357056,0.0253296,-0.0219727,0.00549316,0.00976562
79,4,0.0473022,0.0106812,0.00701904,0.020752,0.0274658,0.0296021,0.0317383,0.0482178,0.0296021,0.022583,-0.0213623,0.015564,0.010376
80,0,0.00396729,0.0280762,0.0128174,0.0250244,0.0244141,0.0378418,0.0280762,0.0308228,0.0299072,0.0167847,-0.0152588,0.0741577,0.0268555
80,1,0.0253296,0.0305176,0.0134277,-0.00640869,0.0149536,0.0271606,0.0332642,0.0228882,0.0372314,0.0201416,-0.0262451,0.000305176,-0.0289917
80,2,0.0219727,0.0201416,0.0259399,-0.0183105,0.0280762,0.0247192,0.0253296,0.0238037,0.0195312,0.0216675,-0.0265503,0.0271606,0.017395
80,3,0.0137329,0.0228882,0.0601196,-0.00793457,0.0308228,0.0292969,0.038147,0.0259399,0.0317383,0.0280762,-0.0283813,0.00427246,0.0088501
80,4,0.0164795,-0.00305176,0.0201416,0.00427246,0.0210571,0.0195312,0.0170898,0.0241089,0.0299072,0.0613403,-0.0201416,0.0253296,-0.0204468
81,0,0.0158691,0.0164795,0.0201416,0.0100708,0.0280762,0.0137329,0.0524902,0.0311279,0.022583,0.00152588,-0.0262451,0.0244141,0.0146484
81,1,0.0262451,0.0213623,0.0689697,0.00701904,0.0265503,0.0445557,0.0262451,0.0302124,0.0332642,0.0241089,-0.0274658,0.0323486,0.0448608
81,2,0.015564,-0.0204468,0.0256348,0.00762939,0.00671387,0.0134277,0.0195312,0.0473022,0.0286865,0.0231934,-0.0216675,0.012207,0.0177002
81,3,-0.0253296,0.0161743,0.0216675,0.0140381,0.0177002,0.0241089,0.0567627,0.0204468,0.0228882,0.0509644,-0.0231934,0.0164795,0.0131226
81,4,0.0308228,0.0195312,0.010376,0.0137329,0.0012207,0.0137329,0.0231934,0.0369263,0.00640869,0.0442505,-0.0112915,-0.0012207,0.00488281
82,0,0.0308228,0.000915527,0.0198364,0.0265503,0.00610352,0.0228882,0.0271606,0.043335,0.0177002,0.0366211,-0.00793457,0.0180054,0.0201416
82,1,0.0323486,0.0100708,0.0146484,0.0549316,0.0350952,0.0311279,0.0314331,0.00549316,0.0274658,0.0128174,-0.0296021,0.015564,0.0402832
82,2,0.0201416,0.00762939,0.0146484,0.0250244,0.00183105,0.032959,0.0253296,0.0332642,0.0265503,0.0234985,-0.0549316,0.0222778,0.0186157
82,3,0.0280762,0.0274658,0.00701904,0.0305176,0.0842285,0.0308228,0.0213623,-0.0283813,0.0311279,0.0253296,-0.0320435,0.0146484,0.0326538
82,4,0.0247192,0.00671387,0.0357056,0.0378418,0.0271606,0.0198364,0.00701904,0.0265503,0.0292969,0.0320435,-0.0396729,0.0210571,0.0622559
83,0,0.0274658,0.0253296,0.0238037,0.0338745,0.0326538,0.0198364,0.0332642,0.0271606,0.0335693,0.0360107,-0.0311279,0.0448608,0.0247192
83,1,0.0234985,0.0177002,-0.0183105,0.00732422,0.0189209,-0.000915527,0.0326538,0.0189209,0.0259399,0.0396729,-0.0289917,0.0231934,0.00457764
83,2,0.0344849,-0.00183105,0.0177002,0.0292969,0.00915527,0,0.0775146,0.043335,0.0265503,-0.0189209,-0.0332642,0.0183105,0.0219727
83,3,0.0320435,0.0146484,0.0482178,0.0296021,0.0234985,0.000305176,0.0228882,0.0244141,0.0637817,0.0177002,-0.0280762,0.0012207,0.00213623
83,4,0.0314331,0.0198364,0.0222778,-0.0186157,0.0189209,0.0170898,0.0387573,0.032959,0.0283813,0.0378418,-0.0427246,0.027771,0.0247192
84,0,0.0570679,0.0216675,0.0411987,0.00549316,0.00915527,0.0186157,0.0253296,0.0344849,0.0369263,0.027771,-0.0256348,0.0292969,0.0189209
84,1,0.0292969,-0.0140381,0.0180054,-0.0088501,0.0244141,0.0183105,0.0140381,0.0259399,0.0247192,0.0192261,-0.0378418,0.0299072,0.0241089
84,2,0.0170898,0.0408936,-0.0222778,-0.022583,0.022583,0.0765991,0.0268555,0.0244141,0.0308228,0.0219727,-0.0344849,0.0271606,0.0289917
84,3,0.0231934,0.0256348,0.0457764,-0.0125122,0.0238037,0.012207,0.0250244,0.0012207,0.0283813,0.0286865,-0.0421143,0.0396729,0.0259399
84,4,0.0253296,0.0326538,0.0234985,0.00244141,0.00793457,0.0360107,0.00152588,0.0335693,0.032959,0.0280762,-0.0366211,0.0170898,0.0323486
85,0,0.0372314,0.0317383,0.0469971,0.00762939,0.0204468,0.0149536,0.000915527,0.0286865,0.0213623,0.0396729,-0.0360107,0.0338745,-0.0396729
85,1,0.0201416,0.0292969,-0.0125122,0.0198364,0.0250244,0.0177002,0.0146484,0.020752,0.0497437,0.0177002,-0.0308228,0.0747681,0.0302124
85,2,0.0323486,0.0283813,0.00793457,0.0012207,0.0216675,-0.00579834,0.0158691,0.0296021,0.0143433,0.0332642,-0.0280762,0.00488281,0.0238037
85,3,0.0363159,0.0332642,0.0299072,0.0372314,-0.00915527,0.020752,0.0305176,-0.0256348,0.0302124,0.0244141,-0.0344849,0.0335693,0.0216675
85,4,0.0357056,0.0158691,0.0213623,0.0106812,0.0149536,0.0274658,0.0195312,0.0338745,0.0387573,0.0354004,-0.0213623,0.00396729,0.0344849
86,0,0.0299072,0.0088501,0.0152588,0.0302124,0.0198364,0.0189209,0.0186157,0.0323486,0.0216675,0.027771,-0.0405884,0.0302124,0.0244141
86,1,0.0219727,-0.00152588,0.0146484,0.0445557,0.0195312,0.0128174,0.0268555,0.0119019,0.0308228,0.00732422,-0.022583,0.0210571,0.00854492
86,2,-0.0323486,-0.00244141,0.010376,0.0408936,0.0152588,0.0241089,0.0164795,0.0265503,0.0299072,0.0198364,-0.0546265,0.0161743,0.0247192
86,3,0.0482178,-0.015564,0.0259399,0.0393677,-0.0213623,0.0119019,0.0292969,0.0146484,0.0195312,0.0299072,-0.0674438,0.0219727,0.0152588
86,4,0.0238037,0.00244141,0.0283813,0.0344849,0.0213623,0.0302124,0.0231934,0.0311279,0.0259399,0.0448608,-0.071106,0.0262451,0.0158691
87,0,0.0259399,0.0146484,0.0119019,0.0424194,0.00457764,0.0170898,0.0201416,0.0491333,0.0296021,0.022583,-0.0311279,0.0439453,0.0195312
87,1,0.0595093,0.0119019,0.0177002,0.128479,0.0161743,0.0247192,-0.0158691,0.0265503,0.0335693,-0.0088501,-0.0259399,0.0234985,0.0262451
87,2,0.0314331,0.00701904,0.00579834,0.0253296,0.0131226,0.0900269,0.0332642,0.0289917,0.0332642,0.0369263,-0.0311279,0.0189209,0.0231934
87,3,0.039978,0.0299072,0.0189209,0.015564,0.020752,0.0128174,0.0219727,0.0384521,0.0314331,0.0363159,-0.0341797,0.0280762,-0.0390625
87,4,0.0167847,0.0170898,0.0186157,-0.0134277,0.00610352,0.0219727,0.0238037,0.0372314,0.0344849,0.0253296,-0.0262451,0.0289917,0.0149536
88,0,0.0262451,0.0326538,0.0314331,0.0112915,0.0152588,0.00854492,-0.0158691,0.0201416,0.0378418,0.06073,-0.0222778,0.0128174,0.0512695
88,1,-0.000915527,0.0683594,0.0180054,-0.0189209,0.00915527,0.0164795,0.0186157,-0.00488281,0.0308228,0.0280762,-0.022583,0.017395,0.0363159
88,2,0.039978,0.0515747,0.0177002,-0.027771,-0.020752,0.0161743,0.0280762,0.0549316,0.0271606,0.0302124,-0.0289917,0.0271606,0.0180054
88,3,0.0299072,0.0372314,0.0131226,-0.0088501,0.015564,0.0186157,0.0320435,0.0167847,0.0305176,0.0247192,-0.032959,0.0421143,0.0305176
88,4,0.0296021,0.0189209,0.0292969,-0.0341797,0.0418091,0.00640869,0.0448608,0.0317383,0.0274658,0.0314331,-0.0628662,0.0286865,0.0231934
89,0,0.0152588,0.0195312,0.0222778,0.0167847,0.0213623,0.0292969,0.0125122,0.0192261,0.0653076,0.0448608,-0.0338745,-0.0192261,0.0283813
89,1,0.0177002,0.0292969,0.0686646,0.00976562,0.0088501,0.0317383,0.0143433,0.0241089,0.0183105,0.015564,-0.0332642,0.0177002,0.0363159
89,2,0.0253296,0.0479126,0.00488281,0.0134277,-0.00152588,0.00762939,0.0167847,0.0457764,0.0180054,0.0344849,-0.0427246,0.0231934,0.0262451
89,3,0.0265503,0.0680542,0.0119019,0.022583,0.0201416,0.0180054,0.0213623,0.0308228,0.0241089,0.0350952,-0.0305176,0.0241089,0.0204468
89,4,0.0320435,0.0592041,0.0131226,0.0088501,0.00457764,0.00823975,0.0222778,0.0366211,0.0164795,0.0170898,-0.00946045,0.0549316,0.0234985
90,0,0.0259399,0.0265503,0.0186157,-0.038147,0.0241089,0.0213623,0.0213623,0.0259399,0.0186157,0.0286865,-0.0506592,0.0350952,0.0167847
90,1,0.0186157,0.0393677,0.0274658,0.0311279,0.0189209,0.0213623,0.0305176,-0.0244141,0.0210571,0.032959,-0.0335693,0.0231934,0.0259399
90,2,0.0271606,0.0143433,-0.0393677,0.032959,0.0164795,0.0424194,0.0201416,0.0241089,0.0836182,0.0512695,-0.0344849,-0.00610352,0.0357056
90,3,0.0137329,0.0164795,0.0189209,0.0332642,0.010376,0.0268555,-0.0119019,0.0344849,0.0238037,-0.017395,-0.0372314,0.0286865,0.0311279
90,4,0.0204468,0.0262451,0.0427246,0.0344849,0.00946045,0.0152588,0.0323486,0.0802612,0.0192261,0.00488281,-0.0311279,0.0296021,0.0192261
91,0,0.000610352,0.0180054,0.0262451,0.0848389,0.0128174,0.0338745,0.0238037,0.0305176,0.0134277,0.0219727,-0.0259399,0.0390625,0.0299072
91,1,0.0457764,0.0192261,0.020752,0.0323486,-0.00152588,0.0213623,0.00183105,0.00610352,0.0280762,-0.0308228,-0.0354004,0.0314331,-0.0170898
91,2,0.0189209,0.0299072,0.0100708,0.0384521,0.0149536,0.0259399,0.03479,0.020752,0.0283813,0.0308228,-0.0384521,0.0384521,0.0482178
91,3,0.0231934,0.0192261,0.032959,0.022583,0.00152588,0.0314331,0.012207,0.0296021,-0.0466919,0.0427246,-0.0424194,0.0332642,0.0283813
91,4,0.0216675,0.0323486,0.0201416,-0.00549316,0.0106812,0.0296021,0.0137329,0.0204468,0.0283813,0.0338745,-0.0350952,0.0296021,0.0299072
92,0,0.0186157,0.0491333,0.00640869,0.00854492,0.00915527,0.0201416,0.0137329,0.0106812,0.0363159,0.0234985,-0.0271606,0.0289917,0.0378418
92,1,0.0234985,0.032959,0.0442505,0.00640869,0.000915527,0.0192261,0.010376,0.0411987,0.0253296,0.039978,-0.038147,0.0289917,0.0283813
92,2,0.027771,0.0439453,0.0216675,-0.0158691,0.00488281,0.0204468,-0.0134277,0.0222778,0.0283813,0.0845337,-0.0375366,0.0402832,0.0186157
92,3,0.0332642,0.0421143,0.0216675,0.00305176,0.0170898,0.038147,0.0192261,0.085144,0.0201416,0.0341797,-0.0308228,0.0177002,0.0430298
92,4,0.0415039,0.0491333,0.0296021,0.00335693,0.057373,0.0149536,0.0253296,-0.0189209,0.0253296,0.0314331,-0.0326538,0.0344849,0.0158691
93,0,0.0204468,0.0177002,0.0140381,0.0201416,0.0146484,0.0161743,0.00366211,0.00762939,0.027771,0.0430298,-0.0357056,0.0326538,0.0317383
93,1,0.022583,-0.0234985,0.0271606,0.0320435,0.0274658,0.0369263,0.00762939,0.0170898,0.0234985,0.0289917,-0.03479,0.0183105,0.0442505
93,2,0.0622559,0.0292969,0.032959,0.020752,0.0231934,0.00427246,0.00915527,0.0234985,0.0219727,0.0265503,-0.0518799,0.0335693,0.0189209
93,3,0.0296021,0.0344849,0.0305176,0.0213623,0.0210571,0.0241089,0.0131226,-0.0192261,0.0247192,0.0350952,-0.0323486,0.0256348,0.0622559
93,4,0.00915527,0.0134277,0.022583,-0.0299072,0.00244141,0.012207,0.00793457,0.0192261,0.0274658,0.0552368,-0.00854492,0.0430298,0.0671387
94,0,-0.038147,0.0106812,0.0216675,0.0384521,0.0195312,0.0231934,0.0253296,0.0106812,0.0247192,0.0314331,-0.0418091,0.0289917,0.0396729
94,1,0.0314331,0.0149536,0.0259399,0.0167847,0.0213623,0.0216675,0.03479,0.00549316,0.0189209,0.0354004,-0.027771,0.0296021,0.0323486
94,2,0.0268555,0.0531006,0.0204468,0.045166,0.000915527,0.0292969,0.0256348,-0.00549316,0.022583,0.0180054,-0.00183105,0.00915527,0.0222778
94,3,0.0244141,0.0268555,0.0308228,0.0531006,-0.00671387,0.017395,0.00976562,-0.0286865,0.0216675,0.0311279,-0.03479,0.0280762,0.0390625
94,4,0.0283813,-0.0100708,0.0296021,0.0637817,0.00701904,-0.00946045,0.0198364,0.00244141,0.0296021,0.0299072,-0.0234985,0.0354004,0.00946045
95,0,0.0308228,-0.0180054,0.039978,0.0509644,0.00976562,0.00610352,0.017395,0.0238037,0.0119019,0.022583,-0.0250244,0.045166,0.0357056
95,1,0.0112915,0.0112915,0.0418091,0.0292969,0.00762939,0.00976562,0.0811768,0.0186157,0.0299072,0.0317383,-0.0405884,0.0308228,0.03479
95,2,0.0271606,0.00976562,0.0534058,0.0305176,0.0296021,0.00701904,0.0311279,0.0106812,0.0109863,0.0408936,-0.045166,0.0384521,0.0402832
95,3,0.0320435,0.0152588,0.0479126,0.0317383,0.0363159,0.0628662,0.0137329,0,0.0405884,0.0250244,-0.0427246,0.0210571,0.0543213
95,4,0.0341797,0.0610352,0.0170898,0.0286865,0.0253296,0.0137329,0.0180054,0.0115967,0.0415039,0.00640869,-0.0299072,0.0427246,0.0350952
96,0,0.0280762,0.039978,0.00762939,0.0289917,0.0164795,-0.0112915,0.0228882,0.0213623,-0.00518799,0.0189209,-0.0314331,0.0756836,0.0265503
96,1,-0.032959,0.0286865,0.0177002,0.0732422,0.0491333,0.0189209,-0.0262451,0.00610352,0.0234985,-0.0228882,0.00976562,0.0344849,0.0280762
96,2,0.0311279,0.0408936,0.0201416,0.0149536,0.0213623,0.0265503,0.0222778,0.0128174,0.0402832,0.0296021,-0.0271606,0.0366211,0.0338745
96,3,0.0366211,0.0430298,0.0234985,0.0216675,0.022583,0.0457764,0.0137329,0.0201416,0.0201416,0.0949097,-0.0314331,0.0250244,0.0592041
96,4,0.0170898,0.0460815,0.0231934,0.0112915,0.0292969,0.0106812,0.0204468,0.015564,0.0222778,0.0326538,-0.0268555,0.0442505,0.0363159
97,0,0.039978,0.0512695,0.0219727,0.0100708,0.0186157,0.00762939,0.00823975,0.0164795,0.0256348,0.0518799,0.00427246,0.0332642,0.0338745
97,1,0.0195312,0.0518799,0.0585938,0.0177002,0.0286865,-0.0427246,0.0256348,0.0332642,0.083313,0.0308228,-0.0314331,-0.0134277,0.0146484
97,2,0.0222778,0.0299072,0.0320435,0.022583,-0.00946045,0.0115967,0.0198364,0.0448608,0.00793457,0.0363159,-0.0326538,0.0494385,0.0305176
97,3,0.0259399,0.0286865,0.0167847,0.0198364,0.0198364,0.0177002,0.00701904,0.00793457,0.0137329,0.017395,-0.0317383,0.0341797,0.020752
97,4,0.0369263,0.0344849,0.0189209,0.0415039,0.0314331,-0.0112915,0.00915527,0.0167847,0.0238037,0.0186157,-0.00427246,0.045166,0.0299072
98,0,0.0286865,0.0265503,0.0271606,0.0344849,0.0164795,0.00854492,0.00701904,0.0131226,0.0198364,0.0292969,-0.03479,0.0350952,0.0213623
98,1,0.0283813,0.038147,0.0100708,0.03479,0.0238037,0.0115967,0.0274658,0.0170898,0.0268555,0.012207,-0.0384521,0.0320435,0.0369263
98,2,0.0326538,0.0540161,0.00915527,0.043335,0.0238037,-0.00183105,0.0683594,0.0170898,0.0222778,0.0512695,-0.0357056,0.0320435,0.043335
98,3,-0.00488281,0.0439453,0.0280762,0.0524902,0.017395,-0.00152588,0.000305176,0.015564,0.0350952,0.0280762,-0.0387573,0.0234985,0.0335693
98,4,0.0308228,0.0335693,0.0177002,0.0180054,0.0314331,0.0109863,0.000915527,0.015564,0.0231934,0.0338745,-0.0375366,0.0305176,0.0250244
99,0,0.0219727,0.0378418,-0.0128174,0.0488281,0.0296021,-0.0460815,0.027771,0.00762939,-0.0164795,0.0308228,-0.0384521,0.0442505,0.0241089
99,1,-0.015564,0.0253296,0.0250244,0.0372314,0.0201416,0.0106812,0.0149536,-0.00488281,0.0262451,0.0350952,-0.0311279,0.0317383,0.027771
99,2,0.0152588,0.0238037,0.0427246,0.0405884,0.0192261,0.0131226,0.0228882,0.0149536,0.0201416,0.0216675,-0.0323486,0.0396729,0.0396729
99,3,0.0204468,0.0180054,0.0201416,0.0396729,0.0167847,0.0234985,0.0271606,0.0247192,0.0149536,0.015564,-0.0228882,0.0500488,0.062561
99,4,0.03479,0.03479,0.0189209,0.0323486,0.0244141,0.0219727,0.0125122,0.00366211,0.0204468,0.0335693,-0.0274658,0.0289917,0.0515747
100,0,0.0115967,0.0714111,0.032959,0.0192261,0.0296021,0.0244141,0.0241089,0.0228882,0.0198364,0.0238037,-0.0167847,0.0360107,0.0411987
100,1,0.03479,0.0308228,0.0222778,0.0265503,0.0308228,0.0109863,0.0247192,0.0186157,0.0167847,0.0158691,-0.0283813,0.032959,0.0408936
100,2,0.022583,0.0189209,0.0357056,0.0125122,0.0158691,0.0250244,0.0311279,0.0106812,0.0177002,0.0241089,-0.0256348,0.015564,0.0222778
100,3,0.0241089,-0.0140381,0.0323486,0.00549316,-0.0119019,0.00488281,0.0131226,0.0271606,0.0234985,0.0238037,-0.0109863,0.0253296,0.0372314
100,4,0.0415039,0.0177002,-0.00640869,0.0170898,0.0265503,0.0314331,0.0378418,0.0170898,0.0161743,0.0158691,-0.0250244,0.015564,-0.00793457
101,0,0.0466919,0.0250244,0.03479,0.00976562,0.0338745,-0.00152588,0.0286865,0.00244141,0.0161743,0.0131226,-0.0234985,0.027771,0.0320435
101,1,0.0177002,0.0393677,0.0384521,0.0372314,0.00396729,0.0234985,0.010376,0.015564,0.00457764,-0.0100708,-0.0302124,0.0292969,0.101624
101,2,0.0323486,-0.0167847,0.0247192,0.00518799,0.0671387,0.020752,0.0222778,0.00671387,-0.000610352,0.0152588,-0.0302124,0.0241089,0.0466919
101,3,0.0302124,0.0354004,0.0268555,0.0216675,0.0292969,0.0360107,0.0161743,-0.00793457,-0.00183105,0.0189209,-0.0650024,0.0280762,0.0289917
101,4,0.0228882,0.0311279,0.0323486,0.0296021,0.0112915,0.0146484,0.0170898,0.0201416,0.0250244,0.00366211,-0.0134277,-0.0280762,0.0405884
102,0,0.0299072,0.0323486,0.0378418,0.0604248,0.0292969,0.0186157,-0.0317383,0.0210571,0.00854492,-0.0396729,-0.0256348,0.0210571,0.0308228
102,1,0.0183105,0.027771,0.0332642,0.0466919,0.0259399,0.0363159,0.0262451,0.0143433,0.0109863,0.0161743,-0.0286865,0.0164795,0.0195312
102,2,0.0360107,0.0268555,0.0323486,0.0598145,0.00732422,0.0238037,0.0125122,0.0128174,0.0143433,0.0280762,-0.0268555,0.0296021,0.0335693
102,3,0.0466919,0.0445557,0.039978,0.0576782,0.0357056,0.0296021,0.0222778,0.0088501,0.00671387,0.00579834,-0.0213623,0.0250244,0.038147
102,4,0.0430298,0.0244141,0.0286865,0.057373,0.0253296,0.00854492,0.0320435,0.0280762,0.0302124,0.0100708,-0.0350952,0.0204468,-0.0152588
103,0,0.00610352,0.0222778,0.0402832,0.0518799,0.038147,0.0369263,0.00488281,0.0100708,-0.00610352,-0.015564,-0.0289917,0.0369263,0.015564
103,1,0.0238037,0.022583,0.0292969,0.0595093,0.0271606,0.0268555,0.00274658,0.0161743,-0.000915527,0.0161743,-0.0192261,0.0137329,0.0286865
103,2,-0.00549316,0.032959,0.0167847,0.0598145,0.0445557,0.0491333,0.0164795,0.0100708,0.0128174,0.0204468,-0.0238037,0.0317383,0.0427246
103,3,0.0228882,0.0357056,0.00762939,0.0296021,0.0393677,-0.0344849,0.0140381,0.00488281,-0.0482178,0.0143433,-0.0170898,0.0390625,0.0289917
103,4,0.0405884,0.0448608,0.0390625,0.0201416,0.0439453,0.0262451,0.0274658,0.0234985,0.0256348,0.000915527,-0.0274658,0.0268555,0.03479
104,0,0.0305176,0.0259399,0.0427246,0.0283813,0.0415039,0.03479,0.0369263,0.0445557,0.0234985,0.0112915,-0.0296021,0.0143433,0.0210571
104,1,0.0265503,0.0231934,0.0292969,0.0167847,0.0915527,0.0289917,0.0164795,0.0466919,0.0186157,0.00701904,-0.0515747,0.0219727,0.0308228
104,2,0.0192261,0.0338745,0.0360107,0.00701904,0.0637817,0.0262451,0.015564,-0.00732422,0.0216675,0.00579834,-0.0250244,0.0372314,0.0250244
104,3,0.0250244,0.0363159,0.0341797,0.0170898,0.0292969,-0.0012207,0.027771,0.0131226,0.00762939,0.0259399,-0.0189209,0.0152588,-0.00366211
104,4,0.0228882,0.0320435,0.0317383,0,0.0219727,0.0164795,0.0238037,0.0137329,0.0247192,0.010376,-0.00427246,0.0131226,0.0332642
105,0,0.0323486,0.0228882,0.0231934,0.0259399,0.0314331,0.0616455,0.00457764,0.0314331,0.000305176,0.00701904,-0.0219727,0.0149536,0.0341797
105,1,-0.000915527,0.0283813,0.0384521,-0.00305176,0.0311279,0.0115967,0.0115967,0.022583,0.0280762,0.0354004,-0.0238037,0.0192261,0.020752
105,2,0.032959,0.0402832,0.0653076,0.0222778,0.0265503,-0.0216675,0.0204468,0.0183105,0.03479,0.0177002,-0.0210571,0.0296021,0.0442505
105,3,0.0369263,0.0357056,0.0344849,0.0344849,0.0228882,0.0271606,0.0268555,0.0271606,0.0134277,0.00396729,-0.0265503,0.0286865,0.0317383
105,4,0.0485229,0.0177002,0.00579834,0.0177002,0.0323486,0.0253296,0.0234985,0.00823975,0.0521851,0.0250244,-0.0234985,0.0183105,0.032959
106,0,0.020752,0.0778198,0.0369263,0.0405884,0.0585938,0.0192261,0.0216675,0.00976562,0.00946045,0.00671387,-0.0137329,0.0201416,0.0350952
106,1,0.0186157,0.00396729,0.0616455,0.0390625,0.0286865,0.0341797,0.0192261,0.0299072,0.0119019,0.0204468,-0.0180054,0.0213623,0.0308228
106,2,0.0198364,0.0735474,0.0363159,0.0234985,0.0802612,0.0622559,0.0231934,-0.0396729,0.0363159,0.0186157,-0.0146484,0.0167847,0.0244141
106,3,0.0198364,0.012207,0.0857544,0.0448608,0.0180054,0.0408936,0.0143433,-0.010376,0.0115967,0.0180054,-0.00976562,0.020752,0.032959
106,4,0.0332642,0.00549316,-0.00457764,0.0482178,0.0323486,0.0308228,0.0219727,0.0305176,0.0283813,-0.000915527,-0.0238037,0.0289917,0.0970459
107,0,0.0170898,0.0247192,0.0634766,0.0320435,0.0308228,0.0552368,0.0180054,0.0189209,0.0515747,0.0167847,-0.00549316,-0.00427246,0.0259399
107,1,0.0265503,0.00793457,0.00762939,-0.00274658,0.0311279,0.010376,0.0204468,0.017395,-0.00610352,0.0119019,-0.0311279,0.00915527,0.0210571
107,2,0.0192261,-0.0180054,0.0271606,0.0320435,0.0445557,-0.00518799,0.022583,0.03479,0.0119019,0.0177002,-0.0149536,0.0299072,-0.000610352
107,3,0.0265503,0.0494385,0.0256348,0.0222778,0.000610352,0.0302124,0.0256348,0.0140381,0.00671387,0.022583,-0.0228882,0.00549316,0.0311279
107,4,0.0259399,0.0552368,0.0289917,0.015564,0.0314331,0.0369263,0.0253296,0.0204468,0.0146484,0.0271606,-0.0128174,0.045166,0.0341797
108,0,-0.00793457,0.0497437,0.0286865,0.0561523,0.0268555,0.0265503,0.0610352,0.0314331,0.00335693,0.0698853,-0.0460815,0.03479,0.0787354
108,1,-0.0311279,0.0344849,0.0244141,0.010376,0.0137329,0.0292969,0.0323486,-0.00427246,0.0234985,0.0335693,0.0183105,0.0286865,0.032959
108,2,0.0222778,0.0311279,0.0201416,0.0222778,0.0283813,0.0357056,0.0375366,-0.0167847,0.00244141,0.00274658,-0.0460815,0.0228882,0.0344849
108,3,0.0195312,0.0558472,0.0201416,0.00579834,0.0149536,0.0332642,0.0131226,0.0384521,0.0109863,0.0195312,-0.0726318,0.0271606,0.0152588
108,4,0.0164795,0.00732422,0.0253296,0.0213623,0.0238037,0.0253296,0.0213623,-0.00213623,0.0241089,0.0256348,-0.0198364,0.0128174,0.020752
109,0,0.0109863,0.00457764,0.0473022,0.0219727,0.0326538,0.0299072,0.0308228,0.020752,0.0100708,-0.017395,-0.0195312,0.0262451,0.0613403
109,1,0.0244141,0.00854492,0.0283813,0.00457764,0.0222778,0.0415039,0.0262451,0.0311279,-0.0375366,0.020752,-0.0296021,0.0192261,0.0262451
109,2,0.0253296,-0.00183105,0.0314331,-0.00549316,0.0338745,0.0357056,0.0109863,0.0152588,0.0198364,0.00976562,-0.0143433,0.0115967,-0.0109863
109,3,0.0289917,0.0189209,0.0418091,0.0274658,0.0299072,0.0228882,0.0180054,0.027771,0.0134277,0.0195312,-0.0183105,0.00732422,0.0238037
109,4,0.00915527,0.0418091,0.0384521,0.0360107,0.0167847,0.0244141,0.0616455,0.0125122,0.0106812,0.0134277,-0.000305176,0.0213623,0.072937
110,0,0.0231934,0.050354,0.0192261,0.0930786,0.0460815,0.0424194,-0.0390625,0.032959,0.00640869,0.0189209,-0.015564,0.0128174,0.038147
110,1,0.0146484,0.0405884,0.0177002,0.0415039,-0.012207,0.0430298,0.0192261,0.0494385,0.0088501,0.012207,-0.0466919,0.0109863,0.0128174
110,2,0.00549316,0.0112915,0.0253296,0.0546265,0.0305176,0.0250244,0.0326538,0.022583,0.00427246,0.00946045,-0.0161743,0.000610352,0.0195312
110,3,0.0527954,0.0494385,0.017395,0.0558472,0.0396729,0.0335693,0.0210571,0.0152588,0.017395,0.0186157,-0.0463867,0.0112915,0.0146484
110,4,0.012207,0.0668335,0.022583,0.0418091,0.0195312,0.022583,0.0317383,0.00762939,-0.0338745,0.0204468,-0.0250244,0.0534058,0.0161743
111,0,0.0216675,0.0476074,-0.0186157,0.0408936,0.0350952,0.0238037,0.0463867,0.0299072,0.012207,0.0280762,-0.0167847,0.0128174,0.0216675
111,1,0.0201416,0.0238037,0.0405884,0.0357056,0.0314331,0.0180054,0.0259399,0.0302124,0.027771,0.0134277,-0.0186157,0.0546265,0.00946045
111,2,-0.00213623,0.0854492,0.0244141,0.0360107,0.0485229,0.0320435,0.0128174,-0.0241089,0.0115967,0.00488281,-0.0219727,0.0143433,0.0219727
111,3,0.0131226,0.0238037,0.0170898,0.0247192,0.0204468,0.0354004,0.0421143,0.0363159,-0.00457764,0.0137329,0.0186157,0.0247192,0.0146484
111,4,0.000610352,0.0256348,0.0228882,0,0.0354004,0.039978,-0.0146484,0.0292969,-0.000915527,0.0128174,-0.0088501,0.0186157,0.0408936
112,0,0.012207,0.0314331,0.0143433,0.0216675,0.0787354,0.0378418,0.0384521,0.050354,-0.00518799,0.0115967,-0.0210571,0.00793457,0.0186157
112,1,0.0228882,0.0219727,0.00549316,0.0137329,0.0320435,-0.0262451,0.0262451,0.00854492,0.0292969,0.00701904,-0.0170898,0.0344849,0.0360107
112,2,0.015564,0.0311279,0.0164795,0.0177002,0.0350952,0.0332642,0.102844,0.03479,0.0146484,0.0338745,-0.00793457,0.00701904,0.0335693
112,3,0.027771,0.0204468,0.0222778,0.00366211,0.0256348,0.0244141,0.0299072,0.0216675,0.00640869,0.0253296,-0.0088501,-0.00610352,0.0228882
112,4,-0.00732422,0.0311279,0.0088501,-0.0585938,0.0439453,0.0323486,0.0241089,0.0228882,0.0231934,0.0259399,-0.012207,0.0088501,0.0674438
113,0,-0.0430298,0.0143433,0.0210571,-0.00976562,0.0286865,0.0234985,0.0601196,0.0216675,0.00854492,0.0570679,-0.0112915,0.0292969,0.0280762
113,1,-0.00305176,0.0189209,0.0216675,-0.00762939,0.0164795,0.0323486,0.0286865,0.015564,0.0201416,0.0119019,-0.0158691,0.0125122,0.0198364
113,2,0.00976562,0.0280762,-0.0131226,0.0308228,0.0344849,0.0421143,0.0262451,0.0222778,0.0195312,0.0186157,-0.0128174,0.0415039,0.015564
113,3,0.00335693,0.0183105,-0.012207,0.0128174,0.0701904,0.0515747,0.0170898,0.0372314,0.0253296,-0.0012207,-0.0231934,0.0183105,0.0186157
113,4,0.010376,0.0192261,0.0109863,0.0137329,0.0378418,0.0457764,0.0332642,0.0238037,0.0189209,0.0350952,-0.0180054,0.0131226,0.0201416
114,0,0.0244141,0.0152588,0.0244141,0.0308228,0.0296021,0.0308228,0.027771,0.0238037,-0.00244141,0.0128174,-0.0119019,0.0134277,0.0219727
114,1,0.017395,-0.00152588,0.0241089,0.0244141,0.0286865,0.0247192,-0.0198364,0.0411987,0.032959,0.0317383,-0.0222778,0.0131226,0.010376
114,2,0.0128174,0.00335693,0.032959,0.0326538,0.0222778,0.0296021,0.0457764,-0.00793457,0.0256348,0.027771,0.0161743,0.0106812,0
114,3,0.0112915,-0.0341797,0.0222778,0.0436401,-0.00640869,0.0244141,0.0302124,0.0576782,0.0311279,0.0131226,-0.0186157,0.00610352,0.0286865
114,4,-0.00488281,-0.00854492,0.0250244,0.0549316,0.0402832,0.0161743,0.0390625,0.0427246,0.0308228,0.0164795,-0.0201416,0.0164795,0.00366211
115,0,0.0152588,-0.0234985,0.0131226,0.043335,0.0338745,0.0213623,0.0262451,0.0390625,0.0274658,0.0140381,-0.0131226,0.0262451,0.000915527
115,1,0.0192261,0.0100708,0.0268555,0.038147,0.0265503,0.104675,0.0350952,0.0192261,0.0469971,0.0213623,-0.0100708,0.00915527,0.0131226
115,2,0.017395,-0.0238037,0.017395,0.0384521,-0.0286865,0.0317383,0.0268555,0.072937,0.0244141,0.0152588,-0.00793457,0.0216675,0.0219727
115,3,0.0158691,0.00915527,0.012207,0.022583,0.0421143,0.039978,0.0308228,0.0411987,0.0280762,0.0167847,-0.00976562,0.0146484,0.00488281
115,4,0.0256348,0.0360107,0.00396729,-0.0320435,0.0231934,0.0357056,0.0357056,0.0219727,0.0357056,-0.00366211,-0.0186157,0.0210571,0.0186157
116,0,0.0219727,0.027771,0.0112915,0.00946045,0.0271606,0.0292969,0.038147,0.0375366,0.00854492,0.00701904,-0.00518799,0.015564,0.0146484
116,1,0.0140381,0.0204468,0.0326538,0.015564,0.0262451,0.0271606,0.0363159,0.0238037,0.00854492,0.00427246,0.0134277,0.00793457,0.0158691
116,2,0.0131226,0.00366211,0.015564,0.0112915,0.00335693,0.0228882,0.0354004,0.0448608,0.0250244,0.0234985,-0.0289917,0.0146484,0.0213623
116,3,0.0143433,0.0262451,0.0219727,0.00854492,0.0274658,0.0247192,0.0494385,0.0286865,0.0268555,0.0296021,-0.0164795,-0.00152588,0.0198364
116,4,-0.0308228,0.0177002,0.00976562,0.000610352,0.0280762,0.0332642,0.0332642,0.0366211,0.0415039,0.0183105,-0.0131226,-0.00701904,0.0109863
117,0,0.0125122,0.0238037,0.0164795,0.020752,0.015564,0.0259399,0.00183105,0.0305176,0.0289917,0.00732422,-0.00305176,0.00732422,0.0537109
117,1,0.0332642,0.0146484,0.0250244,0.0109863,0.0326538,0.0344849,0.0299072,0.032959,0.0262451,0.00457764,-0.0180054,0.0158691,0.0317383
117,2,0.0186157,0.0161743,0.00946045,0.0119019,0.0296021,-0.00793457,0.0231934,0.0430298,-0.0396729,0.0332642,-0.0231934,-0.0183105,-0.0115967
117,3,0.0119019,-0.0265503,0.00915527,0.0158691,0.032959,0.0378418,0.0308228,0.0653076,0.0195312,0.015564,-0.0314331,0.0167847,0.0201416
117,4,0.0146484,0.00823975,-0.00213623,0.0344849,0.0341797,0.0384521,0.0357056,0.0497437,0.0534058,0.0201416,-0.0204468,0.0112915,0.032959
118,0,0.0622559,0.00640869,0.0201416,0.0378418,0.020752,0.0448608,-0.00305176,0.0430298,0.0311279,0.062561,0.00213623,0.00457764,0.0134277
118,1,0.0161743,0.010376,0.0177002,0.0259399,0.0210571,0.0411987,0.0183105,0.027771,0.0344849,0.0167847,-0.0149536,-0.0128174,0.020752
118,2,0.0167847,0.0146484,-0.00396729,0.017395,0.0265503,0.0201416,0.0177002,0.03479,0.0201416,0.0338745,-0.0137329,0.0186157,-0.00183105
118,3,0.0448608,0.0106812,0.015564,0.0476074,0.0314331,0.0234985,0.0213623,0.0170898,0.0198364,0.0259399,-0.00640869,0.00183105,0.0146484
118,4,0.0100708,0.00946045,0.00946045,0.0250244,0.0265503,0.0335693,0.0463867,0.00793457,0.0228882,0.00976562,-0.0125122,0.0183105,0.0177002
119,0,0.0259399,0.0149536,-0.000915527,0.0375366,0.0180054,0.043335,0.0372314,0.0271606,-0.00457764,0.020752,-0.0180054,0.0384521,0.00457764
119,1,0.0216675,0.032959,0.00305176,0.0274658,0.0830078,0.032959,0.0253296,-0.0274658,0.0357056,0.0161743,-0.0335693,0.0158691,0.0210571
119,2,0.0213623,0.020752,0.0125122,0.0332642,0.0244141,0.027771,0.0332642,0.00640869,0.0357056,0.0262451,-0.0241089,0.0231934,0.0112915
119,3,0.00488281,0.00915527,0.010376,0.0241089,0.0350952,0.0448608,0.0341797,0.0143433,0.0415039,0.0228882,-0.0592041,0.0158691,0.0180054
119,4,-0.00152588,0.0100708,0.0186157,0.0131226,0.0360107,0.0372314,0.050354,0.0234985,0.0234985,0.0357056,-0.039978,0.00793457,0.0216675
120,0,0.00396729,0.0238037,0.0250244,0.0192261,0.00518799,0.0326538,0.102539,0.0213623,0.0250244,-0.0161743,-0.0152588,0.0140381,0.0106812
120,1,0.0161743,0.0524902,0.0128174,0.0180054,0.0152588,0.0299072,0.0393677,0.0262451,0.0280762,0.0704956,-0.0201416,0.0106812,0.0177002
120,2,0.0161743,0.0299072,0.0125122,0.0201416,0.020752,0.0357056,0.0460815,0.038147,0.0262451,0.0253296,-0.0186157,0.00701904,0.010376
120,3,0.0170898,0.0186157,0.0198364,0.0158691,0.0247192,0.00762939,0.032959,0.038147,0.0219727,0.0296021,-0.0241089,0.0119019,0.000305176
120,4,0.0158691,0.0271606,-0.0244141,0.0164795,0.0231934,-0.020752,0.0234985,0.00732422,-0.0323486,0.0332642,-0.0247192,0.0216675,0.00915527
121,0,-0.0177002,0.0259399,0.00335693,-0.038147,0.0335693,0.0366211,0.0402832,0.0262451,0.0308228,0.0195312,-0.0161743,0.00762939,0.0115967
121,1,0.0192261,0.0253296,0.00732422,0.0128174,0.022583,0.045166,0.0210571,0.0170898,0.0350952,0.0308228,-0.0299072,0.00854492,0.0299072
121,2,0.0247192,0.027771,0.0253296,0.0320435,0.0189209,0.0460815,0.0262451,0.0161743,0.0366211,0.00854492,-0.0152588,0.0405884,0.012207
121,3,0.0350952,0.00854492,0.0115967,0.0366211,0.0238037,0.0482178,0.0289917,0.0231934,0.0384521,0.0088501,-0.0305176,0.0161743,0.0161743
121,4,0.0198364,0.0189209,-0.00366211,0.0299072,0.03479,0.0177002,0.0332642,0.0320435,0.0521851,0.0219727,-0.0244141,0.0231934,0.0247192
122,0,0.00762939,0.0314331,0.0192261,0.0512695,0.0177002,0.0448608,0.0228882,0.0302124,0.0286865,0.0323486,-0.0180054,0.0210571,0.0088501
122,1,0.00946045,0.000915527,0.00640869,0.0494385,0.00335693,0.0360107,0.0195312,0.03479,0.039978,0.00762939,-0.0180054,0.0115967,0.0384521
122,2,0.010376,0.000915527,-0.00335693,0.0396729,0.0564575,0.0476074,0.0332642,0.0372314,0.0274658,0.0201416,-0.0262451,0.0314331,-0.00183105
122,3,0.000305176,0.00366211,0.0323486,0.03479,0.022583,0.0201416,0.0335693,0.0109863,0.0421143,0.0234985,-0.0164795,0.022583,0.0238037
122,4,0.0317383,0.00396729,0.00762939,-0.00579834,0.0253296,0.039978,0.0338745,0.0271606,0.0369263,0.0408936,-0.0198364,0.020752,0.000610352
123,0,0.0317383,0.00671387,0.0219727,-0.00793457,0.0299072,0.032959,0.0927734,0.0311279,0.0396729,0.045166,-0.0201416,0.0308228,0.0610352
123,1,0.0271606,0.00457764,0.0140381,0.0479126,0.0317383,0.0222778,0.0158691,0.0177002,0.0311279,0.0201416,-0.0384521,0.0296021,0.0128174
123,2,0.0302124,0.017395,0.0201416,0.03479,0.0164795,0.0344849,0.0311279,-0.015564,0.0402832,0.0192261,-0.0390625,0.00152588,0.0216675
123,3,0.0262451,0.0427246,0.0140381,0.0396729,0.0186157,0.0289917,0.027771,0.0247192,0.0436401,0.010376,-0.0274658,0.0778198,0.0259399
123,4,0.0289917,-0.00976562,0.0143433,-0.0195312,0.0280762,0.0405884,0.0256348,0.0283813,0.0311279,0.0817871,-0.0372314,0.0244141,0.0231934
124,0,0.0250244,0.00366211,0.0186157,0.000610352,0.0271606,0.0473022,0.0402832,0.0283813,0.00946045,0.0213623,-0.0274658,-0.0186157,0.0186157
124,1,0.017395,0.00427246,0.0106812,0.00427246,0.0119019,0.0292969,0.0280762,0.0317383,0.0280762,0.0198364,-0.0274658,0.0106812,-0.0354004
124,2,0.0192261,0.00274658,-0.000610352,0.00213623,0.0161743,0.0338745,0.0372314,0.0375366,0.0234985,0.0161743,-0.0265503,0.0479126,0.0143433
124,3,0.017395,0.0143433,0.0109863,-0.00823975,0.0186157,0.0234985,0.0271606,0.0274658,0.0265503,0.0201416,-0.0292969,0.0112915,0.0631714
124,4,0.0396729,-0.00732422,0.00305176,-0.00549316,0.0180054,0.0360107,0.0445557,0.0222778,0.0314331,0.050354,-0.0302124,0.0222778,0.0134277
125,0,0.0250244,-0.00946045,0.0244141,-0.00183105,0.0125122,0.0250244,0.0219727,0.0311279,0.0360107,0.0366211,-0.0299072,0.0183105,0.017395
125,1,0.0198364,-0.0262451,0.00610352,-0.0149536,0.0012207,0.017395,0.0241089,0.0369263,0.0320435,0.0350952,-0.0335693,0.020752,0.010376
125,2,0.00640869,-0.0137329,0.00976562,0.0177002,0.0189209,0.0280762,0.0289917,0.0280762,0.015564,-0.000915527,-0.0302124,0.0299072,0.0128174
125,3,0.022583,-0.00793457,-0.00976562,0.00213623,0.0799561,0.0192261,0.0241089,0.0842285,0.0384521,0.0180054,-0.0228882,0.0338745,0.0167847
125,4,0.0216675,0.0268555,0.00823975,-0.00823975,-0.0271606,0.0308228,0.0384521,0.0561523,0.0360107,0.0402832,-0.0308228,0.0189209,0.0112915
126,0,0.0100708,0.0216675,0.0158691,-0.00183105,0.0109863,0.0219727,0.0485229,0.0848389,0.032959,0.0244141,-0.0579834,0.0210571,-0.000305176
126,1,0.022583,0.0674438,0.0250244,0.010376,0.0656128,0.0292969,0.0326538,-0.00305176,0.0183105,0.0088501,-0.0271606,0.0256348,0.0210571
126,2,0.0219727,0.0445557,0.0146484,0.027771,0.0415039,0.0195312,0.0268555,0.015564,0.0521851,0.0335693,-0.0170898,0.027771,0.0234985
126,3,0.00946045,0.0143433,0.0137329,0.0262451,0.0286865,0.0234985,0.0323486,0.0418091,0.0323486,0.0299072,-0.0228882,0.017395,0.0161743
126,4,0.0198364,0.043335,0.0289917,0.03479,0.0283813,-0.0375366,0.0268555,0.0204468,0.0424194,0.027771,-0.0274658,0.0170898,0.0137329
127,0,0.0250244,0.043335,0.0286865,0.0231934,0.0442505,0.0183105,-0.0170898,0.0350952,0.0500488,0.0582886,-0.0186157,0.015564,0.0253296
127,1,0.0213623,0.0567627,0.0588989,0.0219727,0.0320435,0.0250244,0.0213623,0.0296021,0.0341797,0.0323486,-0.0344849,0.020752,0.0332642
127,2,0.027771,0.0411987,0.0219727,0.0238037,0.0335693,-0.00305176,0.0238037,0.0143433,0.0430298,0.0283813,-0.0305176,0.0247192,0.0186157
127,3,0.0759888,0.0354004,0.00305176,0.0274658,0.0244141,0.0241089,0.0186157,0.0308228,0.0430298,0.0378418,-0.027771,0.0244141,0.022583
127,4,0.0180054,0.09552,0.0265503,0.0195312,-0.022583,0.0186157,0.0250244,0.0363159,0.0344849,0.0274658,-0.0360107,0.0134277,0.0158691
128,0,0.015564,0.0238037,0.0250244,-0.00366211,0.0268555,0.0152588,0.032959,0.0311279,0.0375366,0.0286865,-0.0326538,0.00549316,0.0100708
128,1,0.0259399,0.0323486,0.0204468,-0.0012207,-0.0411987,0.00762939,0.0146484,0.00671387,0.017395,0.0238037,-0.0405884,0.0344849,0.0238037
128,2,0.0192261,0.0128174,0.0588989,0.0164795,0.0158691,0.0570679,0.00244141,0.0445557,0.0323486,0.0360107,-0.0259399,0.0219727,0.0274658
128,3,0.0302124,0.0241089,0.0473022,-0.0131226,0.0158691,0.0167847,0.0308228,0.0286865,0.0161743,0.0262451,-0.0213623,0.0180054,-0.0109863
128,4,0.0210571,0.0222778,-0.0518799,-0.0140381,0.012207,-0.0442505,0.0289917,0.0299072,0.0302124,0.022583,-0.0289917,0.0256348,0.0305176
129,0,0.0292969,0.0146484,0.0643921,0.0170898,0.0265503,0.088501,0.0299072,0.0259399,0.0805664,0.0311279,-0.0299072,0.0915527,0.0305176
129,1,0.0161743,0.00396729,0.0393677,0.00549316,0.045166,0.0137329,0.0253296,0.0680542,0.020752,0.0350952,-0.0296021,0.0372314,0.0271606
129,2,0.0131226,0.0149536,0.022583,-0.0115967,0.0137329,0.0161743,0.0585938,0.0534058,0.0183105,0.0228882,-0.0424194,0.0311279,0.0262451
129,3,0.0360107,0.0363159,0.022583,0.0344849,0.0201416,0.0152588,0.0314331,0.0320435,0.00854492,0.0262451,-0.0262451,0.0228882,0.0216675
129,4,0.0592041,0.0482178,0.00244141,0.0338745,0.0152588,0.0100708,0.0106812,0.0418091,0.0378418,0.0128174,-0.0405884,0.0216675,-0.0256348
130,0,0.0231934,0.032959,0.0149536,0.017395,0.0283813,0.0186157,0.0314331,0.0164795,0.0186157,0.0234985,-0.0518799,0.0262451,0.0100708
130,1,0.0283813,0.0262451,0.0149536,0.0259399,0.012207,0.00762939,0.0390625,0.0863647,0.0149536,0.0454712,-0.0384521,0.0308228,0.0259399
130,2,0.0250244,0.0247192,0.0125122,0.0341797,0.0271606,0.0457764,0.0198364,0.0341797,-0.00152588,0.0323486,0.00183105,0.0292969,0.0360107
130,3,0.0134277,-0.000915527,0.0088501,0.0360107,-0.0405884,0.0164795,0.0222778,-0.0115967,0.0164795,0.0326538,-0.0201416,0.0305176,0.0350952
130,4,0.0375366,0.020752,0.0183105,0.0738525,0.00427246,0.012207,0.0769043,0.0350952,0.0183105,0.0344849,-0.0268555,0.0189209,0.0262451
131,0,0.0271606,0.00549316,0.00915527,0.0283813,0.00976562,0.0131226,0.0131226,0.0213623,0.00793457,0.0296021,-0.0262451,0.0338745,0.0256348
131,1,0.0256348,0.0152588,0.0131226,0.0384521,0.0198364,0.0344849,0.0256348,0.039978,0.0167847,0.0341797,-0.0463867,0.0280762,0.0836182
131,2,0.0289917,0.0262451,0.0320435,0.0326538,0.0106812,-0.0012207,0.022583,0.0283813,0.03479,0.0311279,-0.0332642,0.0256348,0.0506592
131,3,0.0482178,0.0228882,0.0244141,0.00976562,0.0152588,0.0363159,0.0100708,0.03479,-0.000915527,0.0500488,0.00457764,0.0216675,0.0415039
131,4,0.0305176,0.0201416,0.0271606,-0.0524902,0.0146484,0.00549316,0.0198364,0.0405884,0.0283813,0.0350952,-0.0289917,0.0274658,0.0314331
132,0,0.022583,0.0305176,0.015564,0.00396729,0.0552368,0.0241089,0.0415039,-0.0137329,0.0238037,0.0164795,-0.0558472,0.0384521,0.062561
132,1,0.0375366,0.0186157,-0.0180054,0.000915527,0.00518799,0.0140381,0.0189209,0.0308228,0.0689697,0.0350952,-0.03479,-0.0137329,0.0543213
132,2,0.0259399,0.0415039,0.0219727,-0.0131226,0.00793457,0.0128174,0.0210571,-0.00213623,0.0134277,0.0296021,-0.0299072,0.0363159,0.0384521
132,3,0.0326538,0.0189209,0.0128174,0.00396729,0.00762939,0.0296021,0.0219727,0.0213623,0.0787354,0.0274658,-0.0335693,0.00488281,0.0314331
132,4,0.0350952,0.0192261,0.0222778,-0.00579834,0.00457764,-0.0320435,0.0210571,0.0198364,0.010376,0.0485229,-0.0335693,0.0234985,0.0402832
133,0,0.0387573,0.0250244,-0.00366211,-0.00274658,0.0274658,0.0180054,0.0198364,-0.0012207,0.0119019,0.0192261,-0.0253296,0.00366211,0.0500488
133,1,0.0338745,0.055542,0.0216675,0.0119019,0.0546265,0.0259399,0.012207,0.039978,0.0256348,0.0262451,-0.0332642,0.0357056,0.055542
133,2,0.0405884,0.0238037,0.0088501,0.00762939,0.010376,0.0314331,0.0204468,0.0131226,0.0280762,0.020752,-0.0674438,0.0262451,0.0515747
133,3,0.0366211,0.0247192,0.0262451,0.00732422,-0.00762939,0.0183105,0.0134277,0.0143433,0.0292969,0.032959,-0.0238037,0.0247192,0.0476074
133,4,0.0421143,-0.00244141,0.0408936,0.0109863,-0.0152588,0.0177002,0.0143433,-0.0384521,0.0170898,0.0289917,-0.0283813,0.0280762,0.0448608
134,0,0.045166,0.0161743,0.0366211,0.0238037,0.010376,0.0219727,0.0387573,0.0204468,0.0219727,0.0299072,-0.0286865,0.0234985,0.0405884
134,1,0.0402832,0.010376,0.0268555,-0.000915527,0.0250244,0.0314331,-0.010376,0.0161743,0.0283813,0.00305176,-0.0305176,0.0308228,0.03479
134,2,-0.0106812,0.0262451,0.0149536,0.03479,0.017395,0.0158691,0.0210571,0.0213623,0.0100708,0.0201416,-0.0268555,0.0430298,0.0259399
134,3,0.0210571,0.0125122,0.0152588,0.0595093,0.0158691,0.0189209,0.0170898,0.0332642,0.0384521,0.0177002,-0.03479,0.0177002,0.0308228
134,4,0.0320435,0.0247192,0.0189209,0.0204468,0.0274658,0,0.0198364,0.00762939,0.0274658,0.0247192,-0.0357056,0.0253296,0.0283813
135,0,0.0283813,0.0158691,0.0302124,0.0216675,0.00976562,0.0106812,0.0326538,0.0390625,0.0219727,0.027771,-0.0360107,0.0247192,0.0241089
135,1,0.0262451,0.0256348,0.015564,0.03479,0.0134277,0.0189209,0.0262451,0.0247192,0.0631714,0.0158691,-0.0405884,0.055542,0.0128174
135,2,0.0238037,0.0219727,-0.0262451,0.0375366,0.000610352,0.0534058,0.0219727,0.0314331,0.0231934,0.0210571,-0.0436401,0.0250244,0.0198364
135,3,0.0253296,-0.0149536,0.0189209,0.0305176,0.0674438,0.0183105,0.00976562,-0.0201416,0.0125122,0.000610352,-0.0402832,0.0622559,0.0137329
135,4,0.0375366,0.0088501,0.0308228,0.022583,0.0088501,0.0167847,0.00183105,0.0183105,0.0198364,0.0259399,-0.0411987,0.0549316,0.0402832
136,0,0.0491333,0.0247192,0.0271606,-0.000305176,0.00427246,0.00335693,0.0442505,0.0149536,0.0247192,-0.0213623,-0.0366211,0.0363159,0.015564
136,1,0.0415039,0.0280762,0.0457764,0.00946045,0.0289917,0.0213623,-0.00640869,-0.0241089,0.0320435,0.0485229,0.0112915,0.0146484,0.0244141
136,2,0.0311279,0.0164795,0.0442505,-0.0125122,0.0234985,-0.00915527,0.00793457,0.0158691,0.00427246,0.0341797,-0.0338745,0.032959,0.00457764
136,3,0.0183105,0.0140381,0.020752,0.0152588,0.0238037,0.00701904,0.0210571,0.0146484,0.038147,-0.0140381,-0.0369263,0.0317383,0.0790405
136,4,0.0405884,0.0393677,0.0308228,0.0146484,0.0213623,0.0192261,0.0134277,0.00946045,0.0350952,0.0323486,-0.0350952,0.0289917,0.00671387
137,0,0.0350952,0.0350952,0.0320435,-0.00610352,0.0125122,0.0512695,0.0222778,0.0286865,0.0564575,0.0292969,-0.0234985,0.0253296,-0.0143433
137,1,0.0396729,-0.0262451,0.0286865,0.00549316,-0.0466919,0.00793457,0.0216675,0.0140381,0.0219727,0.0366211,-0.0152588,0.0231934,-0.00305176
137,2,0.0357056,0.0314331,0.0320435,0.0177002,0.022583,0.00946045,-0.000305176,0.0183105,0.0125122,0.0228882,-0.0286865,0.0228882,0.0192261
137,3,0.0595093,0.0366211,0.0396729,0.0592041,0.0186157,-0.0115967,0.0195312,0.0256348,0.0344849,0.0180054,-0.0317383,0.0637817,0.0088501
137,4,0.0292969,0.0289917,0.0323486,0.0137329,0.0247192,0.010376,0.0735474,0.0183105,0.0143433,0.0466919,-0.0509644,0.0341797,0.0317383
138,0,0.0335693,0.0274658,0.0265503,0.0183105,0.0186157,0.0106812,0.0253296,-0.000915527,0.0283813,0.0518799,-0.000305176,0.0241089,0.0271606
138,1,0.0299072,0.0134277,0.020752,0.0357056,0.0088501,0.0219727,0.0164795,0.0112915,0.0460815,0.03479,-0.0387573,0.0140381,0.0183105
138,2,0.0170898,0.00793457,0.0234985,0.0408936,0.00915527,0.0250244,0.00854492,0.00366211,0.0152588,0.0314331,-0.0256348,0.0253296,0.0735474
138,3,0.0579834,0.00396729,0.0247192,0.03479,0.017395,0.00732422,0.022583,0.00915527,0.0305176,0.0308228,-0.027771,0.0357056,0.00732422
138,4,0.0436401,0.0216675,0.0357056,0.0338745,0.0146484,0.0222778,0.0613403,0.0143433,0.0256348,0.0445557,-0.0289917,0.0228882,0.00854492
139,0,0.0253296,0.0112915,0.0314331,0.0372314,0.0119019,0.0170898,0.0137329,-0.00671387,0.0204468,0.0363159,-0.027771,0.0222778,0.0256348
139,1,0.0244141,0.0149536,0.0509644,0.0506592,0.0216675,-0.0344849,0.00152588,0.00823975,0.0289917,0.0357056,-0.0360107,0.0305176,0.0521851
139,2,0.038147,0.0567627,0.0149536,0.0253296,0.039978,0.0213623,0.0161743,0.0219727,0.0259399,0.0241089,-0.0241089,0.0930786,0.020752
139,3,0.0424194,0.0430298,0.0393677,0.00976562,0.0161743,0.0695801,0.0286865,0.00946045,-0.0305176,0.0256348,-0.0402832,0.020752,0.0192261
139,4,0.0213623,0.0253296,0.0234985,0.00671387,0.017395,0.0228882,0.0195312,0.0186157,0.00335693,0.0292969,-0.0302124,0.0302124,0.0268555
140,0,0.0216675,0.010376,0.0427246,0.0244141,0.0164795,-0.0515747,0.0308228,0.0323486,0.0140381,0.00183105,-0.0405884,0.0262451,0.0335693
140,1,0.0393677,0.0283813,0.0302124,0.0314331,0.0195312,0.000610352,0.0119019,0.0186157,0.0140381,-0.0283813,-0.0286865,0.0317383,0.0305176
140,2,-0.0219727,0.0332642,0.0415039,0.0146484,0.0320435,0.0296021,0.0222778,0.0234985,0.0109863,0.0244141,-0.0308228,0.039978,0.027771
140,3,0.0360107,0.03479,0.0305176,-0.0012207,0.0354004,0.0100708,0.020752,0.0244141,0.010376,0.0244141,-0.0445557,0.0311279,0.0238037
140,4,0.0134277,0.0183105,0.0143433,0.00427246,0.020752,0.0164795,0.0366211,0.0183105,0.0228882,0.0201416,-0.0302124,0.0296021,0.0100708
141,0,0.0296021,-0.0170898,0.0302124,0.0088501,0.0646973,0.00610352,0.00732422,0.0189209,0.0231934,0.0320435,-0.0302124,0.00640869,0.0106812
141,1,0.0219727,0.0326538,0.0286865,0.00396729,0.0219727,0.0186157,0.00823975,0.0323486,-0.0369263,0.0219727,-0.0408936,0.0216675,0.0320435
141,2,0.0262451,0.0186157,0.0213623,0.0106812,0.0369263,0.0186157,0.0238037,0.0115967,0.0125122,0.00396729,-0.0274658,0.0259399,-0.017395
141,3,0.0231934,0.0363159,0.0299072,0.0247192,0.0164795,0.00579834,0.022583,0.0134277,0.0115967,-0.0140381,-0.0335693,0.0500488,-0.0253296
141,4,0.0384521,0.0335693,0.017395,0.0106812,0.0238037,0.0140381,0.00335693,0.0302124,0.0167847,0.0613403,-0.0314331,0.0390625,0.0338745
142,0,0.039978,0.0466919,0.0259399,0.0106812,0.0115967,0.00793457,0.0195312,0.017395,0.022583,0.062561,-0.0271606,0.0408936,0.03479
142,1,0.0894165,0.0445557,0.0436401,0.0698853,0.0363159,0.0238037,0.0149536,0.00946045,0.0158691,0.0302124,-0.0308228,0.0164795,0.0146484
142,2,0.0204468,-0.00335693,0.0247192,0.0482178,0.0234985,0.012207,0.0088501,0.0335693,0.00854492,0.0204468,-0.0234985,0.0314331,0.022583
142,3,0.0378418,0.0250244,0.0640869,0.0317383,0.020752,0.0506592,0.0268555,0.0222778,0.0125122,0.00549316,-0.0204468,0.0265503,0.0268555
142,4,-0.00762939,0.038147,0.0213623,0.0421143,0.0161743,0.00640869,0.015564,0.0201416,0.00823975,0.0250244,-0.0299072,0.032959,0.0259399
143,0,0.00640869,0.0476074,0.0189209,0.0735474,0.0140381,0.00915527,0.0341797,0.0271606,0.00854492,0.0323486,-0.0296021,0.0308228,0.0415039
143,1,0.0317383,0.0537109,0.0820923,0.0363159,0.0189209,0.0524902,0.0183105,0.0128174,0.0698853,0.0164795,-0.0360107,0.0527954,0.0119019
143,2,0.0204468,0.0198364,0.00366211,0.032959,0.0341797,0.0244141,0.0247192,-0.00396729,0.0152588,0.00152588,-0.0112915,-0.0198364,0.0198364
143,3,0.022583,0.0930786,0.0241089,0.00854492,0.00946045,0.0216675,0.00946045,0.0167847,0.0170898,0.0268555,-0.0247192,0.0344849,0.00732422
143,4,0.0375366,0.0216675,0.0509644,0.0393677,0.00823975,0.0271606,0.0302124,0.0149536,0.0140381,0.0195312,-0.0219727,0.0906372,0.00915527
144,0,0.0494385,0.0363159,0.0308228,0.0204468,-0.00183105,0.010376,0.0131226,0.00427246,0.0143433,-0.00793457,-0.0271606,0.03479,-0.00396729
144,1,0.0390625,0.0396729,0.038147,0.0427246,0.0112915,0.0137329,0.00732422,0.0201416,0.0186157,0.00274658,-0.0332642,0.027771,0.0192261
144,2,0.0390625,0.0360107,-0.0143433,0.0189209,0.0167847,0.0137329,0.032959,0.0112915,0.00976562,0.0186157,-0.0283813,0.0149536,0.0088501
144,3,-0.0253296,0.0350952,0.0323486,0.0628662,0.0219727,0.0201416,0.0250244,-0.0134277,0.010376,0.0164795,-0.0134277,0.03479,0.0296021
144,4,0.0793457,0.0323486,0.0234985,-0.0393677,0.0201416,0.0369263,0.0384521,0.0253296,0.0274658,0.0354004,0.0143433,0.0195312,0.0469971
145,0,0.0234985,0.0402832,0.00579834,0.0192261,0.0241089,0.0296021,0.0152588,0.0100708,0.0289917,0.020752,-0.0253296,-0.00244141,0.0125122
145,1,0.0390625,0.0344849,0.0195312,0.0192261,0.0408936,0.00335693,0.0234985,0.0653076,0.0164795,0.0250244,-0.0671387,0.0296021,0.0161743
145,2,0.0305176,0.043335,0.0137329,0.0198364,0.0231934,0.00579834,0.0115967,0.0192261,0.0238037,0.0357056,-0.0238037,-0.00427246,0.00274658
145,3,0.107422,0.0427246,0.017395,0.083313,0.0158691,0.0186157,0.0436401,0.0131226,0.0180054,0.0137329,-0.0213623,0.0286865,0.0195312
145,4,0.00976562,0.0341797,-0.0231934,0.0216675,0.0250244,-0.0363159,0.00915527,0.0140381,-0.0335693,0.0280762,-0.0198364,0.0241089,0.0234985
146,0,0.022583,0.0372314,0.0537109,0.0485229,0.0109863,0.0253296,0.00213623,0.00915527,0.0134277,0.00579834,-0.020752,0.0360107,-0.0250244
146,1,0.0201416,0.0247192,0.0314331,0.0518799,0.00854492,0.022583,0.00732422,0.0271606,0.00457764,0.0585938,-0.0204468,0.0326538,0.0112915
146,2,0.0482178,0.0286865,0.0436401,0.0534058,0.0180054,0.0195312,-0.0112915,0.0262451,0.0164795,-0.0164795,-0.0244141,0.0274658,-0.0357056
146,3,0.0479126,0.0106812,0.0405884,0.0820923,0.0350952,-0.00274658,0.0610352,0.010376,0.0262451,0.0476074,-0.0491333,0.0234985,0.0561523
146,4,0.0210571,0.0402832,0.0363159,0.0561523,0.00732422,0.0210571,0.0152588,0.0238037,0.0238037,0.015564,-0.0161743,0.0421143,0.0253296
147,0,0.0387573,0.0216675,0.0317383,0.0842285,0.0192261,0.0152588,0.00762939,0.0234985,0.0112915,0.0463867,-0.0100708,0.0170898,0.0140381
147,1,0.0256348,0.0234985,0.0778198,0.0439453,0.0344849,0.0167847,0.017395,0.0250244,0.00793457,0.0427246,-0.0198364,0.0305176,0.0256348
147,2,0.0332642,0.0106812,0.0234985,0.0384521,0.0460815,0.00610352,0.0149536,0.0088501,0.0265503,0.0186157,-0.0161743,0.0167847,0.0369263
147,3,0.0363159,-0.0387573,0.0305176,0.0463867,-0.0418091,0.022583,0.00854492,0.0216675,-0.000915527,0.0183105,-0.0271606,0.0466919,0.0341797
147,4,0.0317383,0.0161743,0.0204468,0.0436401,0.0588989,-0.00213623,0.0201416,0.0128174,0.0115967,0.0158691,-0.0140381,0.0311279,0.0384521
148,0,0.0265503,-0.0408936,0.0390625,0.0323486,0.0579834,0.0344849,0.020752,0.0265503,0.0299072,0.0161743,-0.0247192,0.0152588,0.0317383
148,1,0.0274658,0.0292969,0.00152588,0.0158691,0.0372314,-0.0344849,-0.0012207,-0.00274658,0.00305176,0.0140381,-0.0274658,0.0534058,0.0439453
148,2,0.0201416,0.0106812,0.0115967,0.0231934,0.00244141,0.0491333,0.022583,0.0393677,0.039978,0.0216675,-0.0326538,0.00762939,0.0335693
148,3,0.0256348,0.00457764,-0.00915527,0.0234985,0.0177002,-0.0268555,0.0216675,-0.00671387,0.0219727,0.0213623,-0.000305176,0.0100708,0.0372314
148,4,0.0238037,0.0308228,0.0332642,0.0198364,0.0280762,0.0289917,-0.00579834,0.00488281,0.0247192,0.0482178,-0.0210571,0.0213623,0.0527954
149,0,0.0265503,0.00854492,0.0262451,0.00457764,0.0323486,0.00488281,0,0.022583,0.0100708,0.0231934,-0.0354004,0.0305176,0.0558472
149,1,0.0274658,0.0585938,0.0350952,0.0143433,-0.0598145,0.0238037,0.0128174,0.0509644,0.00640869,0.0250244,-0.00976562,0.00854492,0.0357056
149,2,0.00274658,0.0366211,0.027771,0.0296021,0.038147,0.0198364,0.0177002,0.027771,0.0244141,0.0201416,-0.0140381,0.0167847,0.0335693
149,3,0.0088501,-0.0195312,0.03479,0.0219727,0.0454712,0.022583,0.0250244,0.017395,0.0231934,0.000305176,-0.0253296,0.039978,0.0387573
149,4,0.0112915,0.0259399,0.0271606,0.0335693,0.0320435,0.0302124,0.017395,0.017395,0.0305176,0.0369263,-0.0189209,0.0234985,0.0445557
150,0,0.00946045,0.0137329,0.0427246,0.0335693,0.039978,0.0213623,0.0234985,0.0180054,0.0210571,0.000610352,-0.0219727,0.020752,0.0119019
150,1,0.0317383,0.0210571,0.0479126,0.0274658,0.0424194,0.0186157,0.0149536,0.0119019,0.0186157,0.0210571,-0.0274658,0.0476074,0.0442505
150,2,0.0125122,0.0143433,-0.0131226,0.0421143,0.0354004,0.0292969,0.03479,0.0149536,0.0317383,0.0100708,-0.0180054,0.0222778,0.0811768
150,3,0.012207,0.00549316,0.050354,0.0506592,0.0241089,0.0210571,0.0283813,0.0140381,0.0256348,0.00946045,-0.0271606,0.0299072,0.0161743
150,4,0.0216675,0.0125122,0.0265503,0.0488281,0.0292969,0.0164795,0.0234985,0.00701904,0.00854492,-0.00457764,-0.017395,0.0213623,0.0238037
151,0,0.00579834,-0.0158691,0.0360107,0.0515747,0.0314331,0.0296021,0.0469971,0.0164795,0.012207,0.0149536,-0.00732422,0.0305176,0.038147
151,1,0.0354004,0.0473022,0.00915527,0.0866699,0.0314331,0.0350952,0.0109863,0.0195312,0.0259399,0.017395,-0.0238037,0.0354004,0.03479
151,2,0.0183105,0.06073,0.015564,0.0515747,0.0283813,0.0494385,0.0195312,0.0247192,-0.0299072,0.0128174,-0.027771,-0.0195312,0.0418091
151,3,0.00549316,0.0167847,0.0317383,0.0509644,0.0222778,0.0289917,0.0430298,-0.0131226,0.0140381,0.0134277,-0.0149536,0.0213623,0.0405884
151,4,0.0234985,0.0491333,0.0466919,0.032959,0.0372314,0.0274658,0.0216675,0.039978,-0.000305176,0.0195312,0.0128174,0.0283813,0.0320435
152,0,0.0250244,0.0387573,0.0357056,0.0292969,0.0299072,0.0234985,0.0253296,0.0402832,0.0119019,0.0137329,-0.0369263,0.0198364,0.0390625
152,1,0.00579834,0.0149536,0.0350952,0.032959,0.0448608,0.0396729,0.0485229,0.0216675,0.00640869,0.0131226,-0.0271606,0.0112915,0.0402832
152,2,0.0158691,0.0274658,0.045166,0.0100708,0.027771,0.0088501,0.0183105,0.0296021,0.0244141,0.0265503,-0.022583,0.022583,0.0213623
152,3,-0.00549316,0.0164795,0.0265503,0.0149536,0.0387573,0.0402832,0.0302124,0.0305176,0.00671387,0.0149536,0.00213623,0.0204468,0.0463867
152,4,0.0250244,0.0259399,0.0167847,-0.00274658,0.0311279,0.0460815,0.0189209,0.0308228,0.0454712,0.0164795,-0.0140381,0.0177002,0.0332642
153,0,0.0195312,0.0292969,0.0314331,0.0100708,0.0299072,0.0506592,0.0210571,0.0143433,0.00976562,-0.0238037,-0.0192261,0.0192261,0.0848389
153,1,0.0204468,0.022583,0.0195312,0.0112915,0.0393677,0.0418091,0.0344849,0.00457764,0.0320435,0.0286865,-0.0262451,0,0.039978
153,2,0.0204468,0.0131226,0.0317383,0.0158691,0.0247192,0.0326538,-0.0125122,0.0231934,0.0131226,0.0189209,-0.0296021,0.0271606,0.045166
153,3,0.0247192,0.0198364,0.032959,-0.0161743,0.0299072,-0.00457764,0.0262451,0.0286865,0.0170898,0.00457764,-0.0183105,0.0216675,0.0262451
153,4,0.020752,0.00488281,0.0366211,0.0250244,0.125122,0.0341797,0.022583,0.0115967,0.0164795,0.0134277,-0.0204468,0.0128174,0.0296021
154,0,0.017395,0.0201416,0.100708,0.0198364,0.03479,0.0479126,0.0247192,0.00854492,-0.0479126,0.0283813,-0.0100708,0.0692749,0.0442505
154,1,0.0161743,0.0198364,0.0402832,0.0366211,0.0506592,0.0439453,0.0231934,0.022583,-0.00946045,0.0128174,-0.0146484,0.00976562,0.0302124
154,2,0.012207,0.0552368,0.0134277,0.0482178,0.0363159,-0.00213623,0.0326538,0.00213623,0.0323486,0.0357056,-0.0231934,0.0411987,0.0280762
154,3,0.00946045,0.0262451,0.0738525,0.0338745,0.0250244,0.0289917,0.0332642,0.0149536,0.00793457,0.0396729,-0.0161743,0.0186157,0.0292969
154,4,0.015564,0.0241089,0.0393677,0.0439453,0.0341797,-0.00152588,0.0234985,0.027771,0.0335693,0.0146484,-0.0201416,0.0622559,0.0384521
155,0,0.0152588,0.0201416,0.00335693,0.0424194,0.0137329,0.015564,0.0210571,0.0170898,-0.000305176,0.0125122,-0.00579834,-0.000915527,0.0274658
155,1,0.0146484,0.0213623,0.0308228,0.0241089,0.0317383,0.0238037,0.0158691,-0.0326538,0.0216675,0.0411987,-0.0149536,0.0119019,0.0390625
155,2,0.0268555,0.0262451,0.0265503,0.027771,0.0363159,0.0378418,-0.0143433,0.0350952,0.0338745,0.0180054,-0.0161743,0.0274658,0.0286865
155,3,0.0219727,-0.0378418,0.0280762,0.03479,0.032959,0.0241089,0.022583,0.022583,0.0238037,0.0201416,-0.00701904,0.0012207,0.0320435
155,4,0.0271606,0.0286865,0.0198364,0.0540161,0.0332642,0.0335693,0.0335693,0.0201416,0.0164795,0.0183105,-0.0274658,0.0192261,0.0100708
156,0,-0.00335693,0.0128174,0.0115967,-0.017395,0.0286865,0.020752,0.0344849,0.0305176,0.00701904,0.0112915,-0.0170898,0.0170898,0.0296021
156,1,0.0186157,0.0109863,0.0253296,0.0299072,0.0314331,0.0308228,0.0308228,0.017395,0.0186157,0.00915527,-0.0189209,0.0128174,0.0167847
156,2,0.038147,0.017395,0.0338745,0.017395,0.0326538,0.0158691,0.0286865,0.0289917,0.0271606,0.0219727,-0.0357056,0.00732422,0.0256348
156,3,0.00976562,0.0256348,0.0244141,0.0149536,0.0317383,0.0259399,0.010376,0.0189209,-0.00396729,0.0256348,-0.0088501,-0.00518799,0.0286865
156,4,-0.0164795,0.0234985,0.0238037,0.0222778,0.0311279,0.0305176,0.0628662,0.0134277,0.0231934,-0.0350952,-0.0109863,0.0195312,0.0592041
157,0,0.0213623,0.0222778,0.0228882,0.00579834,0.0292969,0.0280762,0.0201416,0.0244141,0.0100708,0.0283813,-0.0241089,-0.0268555,0.0390625
157,1,0.0241089,0.0152588,-0.0289917,0.0262451,0.0262451,0.0320435,0.0323486,0.0183105,0.00549316,0.00701904,-0.0137329,0.020752,0.0405884
157,2,-0.00518799,0.027771,0.0271606,0.0372314,0.022583,0.0204468,0.0286865,0.0387573,0.0308228,0.0192261,-0.0177002,0.0143433,0.0158691
157,3,0.0158691,0.0253296,0.0268555,0.0366211,0.0201416,0.0192261,0.0183105,0.0317383,0.0253296,-0.00762939,-0.0473022,0.0271606,0.11261
157,4,0.00579834,0.0131226,0.0302124,0.0357056,0.0311279,0.0289917,-0.00823975,0.0335693,0.0186157,0.0476074,-0.0183105,0.0299072,0.0271606
158,0,0.0253296,0.0088501,0.0128174,0.0579834,0.0396729,0.0195312,0.0302124,0.0814819,0.0192261,0.012207,-0.0396729,0.017395,0.0244141
158,1,0.0112915,-0.00335693,0.0131226,0.03479,0.0320435,0.0354004,0.0253296,0.0296021,0.0228882,0.0234985,-0.015564,0.0259399,0.0256348
158,2,0.0558472,0.0393677,0.0180054,0.0567627,0.0387573,0.0247192,-0.0195312,0.0238037,0.0189209,0.027771,-0.0289917,0.00305176,0.0299072
158,3,0.012207,-0.00274658,0.0268555,0.027771,0.0427246,0.022583,0.0488281,0.0265503,0.0283813,0.000915527,-0.0228882,0.0762939,0.0372314
158,4,0.00274658,0.0247192,0.0112915,0.0393677,0.0183105,-0.0125122,0.0216675,0.0238037,0.0289917,0.012207,-0.0222778,0.0177002,0.0238037
159,0,0.0161743,0.0167847,0.0219727,0.0405884,0.032959,0.0302124,0.0213623,0.0219727,0.0363159,0.00640869,-0.0109863,0.0250244,0.0283813
159,1,0.0393677,0.0292969,0.0213623,0.0570679,0.0582886,0.0198364,0.0256348,0.0357056,0.0268555,0.0158691,-0.0228882,0.015564,0.0195312
159,2,0.0198364,0.017395,0.0204468,0.0360107,0.0360107,-0.000305176,0.0241089,0.0109863,0.0280762,0.00549316,0.00976562,0.0149536,0.0149536
159,3,0.0241089,0.0476074,0.0262451,0.0274658,0.0302124,0.0195312,-0.0341797,0.0198364,0.032959,0.00640869,-0.020752,-0.00640869,0.0186157
159,4,-0.0204468,0.0354004,0.0143433,0.0418091,0.0234985,0.032959,0.0314331,0.0360107,0.0408936,0.00518799,-0.0137329,0.0146484,0.0198364
160,0,0.0143433,0.0369263,0.00427246,0.0296021,0.03479,-0.0170898,0.0280762,0.015564,0.0897217,0.0213623,-0.0189209,0.0421143,0.0378418
160,1,0.000915527,0.0408936,0.0259399,0.0131226,0.00701904,0.0354004,0.0335693,0.0308228,0.0296021,0.0708008,-0.0100708,-0.00610352,-0.012207
160,2,0.0256348,0.0192261,0.022583,0.0305176,0.0201416,0.0189209,0.0265503,0.0393677,0.0201416,0.00732422,-0.0213623,0.0241089,0.0149536
160,3,0.0265503,0.0204468,0.0405884,-0.0109863,0.0247192,0.0286865,0.000915527,0.0482178,0.0219727,0.0299072,-0.0216675,0.0143433,0.0213623
160,4,0.00213623,0.0332642,0.0201416,-0.0482178,0.0152588,0.0201416,0.050354,0.0320435,0.0250244,0.062561,0.0244141,0.00274658,0.050354
161,0,0.0167847,0.0152588,0.0396729,0.0253296,0.0317383,0.0302124,0.0308228,0.0405884,0.0201416,-0.012207,-0.0167847,0.00946045,0.0271606
161,1,0.0189209,0.0302124,0.0106812,0.0146484,0.0280762,0.0299072,0.0308228,0.038147,0.00946045,0.0140381,-0.0238037,0.072937,0.0198364
161,2,0.022583,0.0427246,0.0201416,0.00854492,0.00976562,0.0521851,0.0238037,0.0186157,0,0.0213623,-0.0247192,0.0177002,0.0344849
161,3,0.00671387,-0.0222778,0.0234985,0.0222778,0.0372314,0.0393677,0.0292969,0.0161743,0.0222778,-0.000915527,-0.0234985,0.0186157,0.0143433
161,4,0.00671387,-0.00549316,0.0869751,0.0274658,0.0213623,-0.0238037,0.0253296,0.0280762,0.0128174,0.0152588,-0.0177002,0.0265503,0.0222778
162,0,0.0119019,0.00610352,0.0219727,0.0283813,0.0302124,0.0350952,0.0238037,0.0317383,0.0137329,-0.00213623,-0.0259399,0.0198364,-0.00488281
162,1,-0.0286865,0.00946045,0.0170898,0.0271606,0.03479,0.0314331,0.0234985,0.0231934,0.0305176,0.000915527,-0.0198364,0.0137329,0.0177002
162,2,0.0109863,0.0326538,0.0146484,0.0415039,-0.00488281,0.0421143,0.0286865,0.0259399,0.0143433,0.0131226,-0.0115967,0.0146484,0.015564
162,3,0.0192261,-0.0152588,0.0161743,0.0448608,0.0167847,0.0296021,0.0354004,0.0283813,-0.00457764,-0.00488281,-0.015564,0.0152588,0.00671387
162,4,0.0088501,0.022583,0.0262451,0.0372314,0.0115967,0.0326538,0.0299072,0.038147,0.015564,-0.000915527,-0.0161743,0.0213623,0.0299072
163,0,0.0125122,0.0198364,0.0088501,0.0338745,0.0390625,0.0363159,0.0305176,0.0338745,-0.0564575,0.0177002,-0.020752,0.0183105,0.00244141
163,1,0.0231934,0.00518799,0.0140381,0.0299072,0.0152588,0.00366211,0.0219727,-0.0219727,0.00457764,0.00457764,-0.0296021,0.0265503,0.0143433
163,2,0.0296021,0.0189209,0.0100708,0.0601196,-0.000610352,0.0424194,0.0643921,0.0140381,0.0167847,-0.0479126,-0.0512695,0.0164795,0.0125122
163,3,0.0253296,0.0100708,0.0128174,0.0854492,0.0192261,0.0204468,-0.0238037,0.0234985,0.0115967,0.0216675,-0.0302124,0.0170898,0.00701904
163,4,0.015564,0.0210571,0.0177002,0.0128174,0.0204468,0.0357056,0.050354,0.0183105,0.0210571,0.0497437,-0.0164795,0.0112915,0.0256348
164,0,-0.0454712,0.0384521,0.0183105,0.0213623,0.0161743,0.0372314,0.0335693,0.0219727,0.0195312,0.0146484,-0.0384521,0.00366211,0.0192261
164,1,0.00823975,-0.0234985,0.0137329,-0.00366211,0.012207,0.0271606,0.0369263,0.0656128,0.0149536,0.0271606,-0.0164795,0.00671387,0.0213623
164,2,0.0088501,-0.0012207,-0.0494385,0.00488281,0.00579834,0.0274658,0.0326538,0.0234985,0.0106812,0.0213623,-0.022583,0.0195312,0.00762939
164,3,0.0219727,-0.00915527,0.0238037,0.0204468,0.0149536,0.0131226,0.0378418,0.0411987,0.012207,0.0311279,-0.0250244,0.0137329,0.0189209
164,4,0.0143433,-0.00823975,0.017395,-0.0128174,0.0134277,0.0344849,0.0234985,0.032959,0.0231934,0.0180054,-0.0112915,0.00701904,-0.0521851
165,0,0.027771,0,0.0149536,-0.00396729,0.0228882,0.0189209,0.038147,0.0213623,0.0259399,0.0198364,-0.0262451,0.0088501,0.0164795
165,1,0.0195312,-0.0140381,0.022583,-0.00701904,0.015564,0.0360107,0.0299072,0.0228882,0.0326538,0.0238037,-0.0299072,0.0668335,0.0256348
165,2,0.00640869,-0.000915527,0.012207,0.00183105,0.0668335,0.0247192,0.0332642,0.0375366,0.0262451,0.0231934,-0.0299072,0.0280762,0.0210571
165,3,0.0137329,0.0115967,0.0271606,0.00152588,0.0180054,0.0384521,0.0216675,0.0222778,0.0372314,-0.00671387,-0.0259399,0.0265503,0.0384521
165,4,0.0338745,0.0357056,0.0164795,-0.0317383,0.0216675,0.0363159,0.0793457,0.0378418,0.0515747,0.0500488,-0.020752,0.0204468,-0.0378418
166,0,0.0305176,0.0384521,0.0189209,0.00518799,0.00946045,0.0299072,0.0308228,0.0497437,0.0164795,0.0299072,-0.0106812,0.00396729,0.00579834
166,1,0.0268555,0.0537109,0.0524902,0.0115967,0.0164795,0.0332642,0.0314331,0.0253296,0.0311279,0.00579834,-0.0326538,0.0128174,0.0344849
166,2,0.0134277,0.038147,0.0198364,0.0363159,0.0161743,0.043335,0.0323486,0.0250244,0.0350952,0.0164795,-0.0234985,0.0177002,0.0408936
166,3,0.0192261,0.0323486,0.010376,0.0292969,0.0219727,0.0292969,0.0262451,0.0268555,0.0317383,0.0308228,-0.0534058,0.00488281,0.0378418
166,4,0.0241089,0.0247192,0.0152588,0.0305176,0.020752,0.022583,0.032959,0.0262451,0.0363159,0.0274658,-0.0250244,-0.0326538,0.0283813
167,0,0.0253296,0.0405884,0.022583,0.0296021,0.0311279,0.027771,0.0320435,0.0897217,0.0354004,0.0308228,-0.0610352,0.0408936,0.0247192
167,1,0.00579834,0.0585938,0.0149536,0.0283813,0.03479,0.0289917,0.0341797,0.0250244,0.0323486,0.0415039,-0.0286865,-0.0518799,0.010376
167,2,0.0265503,0.0247192,0.0164795,0.0164795,0.0198364,0.0195312,0.0390625,0.0299072,0.032959,0.0375366,-0.0283813,0.017395,0.0131226
167,3,0.0128174,0.0146484,0.0177002,0.00732422,0.00854492,0.0292969,0.0424194,0.0280762,0.0186157,0.0509644,-0.0253296,0.0372314,0.032959
167,4,0.0271606,0.00396729,0.00915527,0.010376,0.0140381,0.032959,0.0457764,0.0372314,0.0305176,0.0491333,-0.032959,0.0128174,0.00152588
168,0,0.0170898,0.0152588,0.0161743,0.00732422,0.015564,0.0210571,0.0369263,0.0482178,0.0402832,-0.000915527,-0.0247192,0.00579834,-0.0268555
168,1,0.0125122,0.00244141,0.012207,0.0100708,0.0177002,0.0274658,0.085144,0.0405884,0.0259399,0.0842285,-0.015564,-0.00640869,0.0402832
168,2,0.00671387,0.0119019,0.0210571,-0.00946045,0.0189209,0.0238037,0.0314331,0.0271606,0.0375366,0.0479126,-0.0177002,0.020752,0.00366211
168,3,0.0161743,0.0228882,0.0216675,-0.00579834,0.0192261,0.0280762,0.0250244,0.0299072,0.072937,0.0485229,-0.0177002,0.062561,-0.00518799
168,4,0.0177002,-0.000305176,0.00915527,0.0494385,0.0299072,0.045166,0.0280762,0.0302124,0.03479,0.0500488,-0.0350952,0.0186157,0.00488281
169,0,0.0271606,0.0186157,0.0680542,-0.0158691,0.0140381,0.0396729,0.0186157,0.0308228,0.027771,0.0543213,-0.0189209,0.0152588,0.00366211
169,1,0.0112915,0.0167847,0.0299072,-0.00762939,0.0204468,0.043335,0.0219727,0.0292969,0.0332642,0.0448608,-0.0241089,0.0201416,0.00976562
169,2,0.0311279,0.00488281,0.0186157,-0.00640869,-0.0512695,0.0250244,0.0216675,0.0305176,0.0186157,0.0543213,-0.0335693,0.00762939,0.015564
169,3,0.0332642,0.00396729,0.0167847,-0.0332642,0.0119019,0.0402832,0.0216675,0.0723267,0.0198364,0.0418091,-0.0332642,0.00976562,0.00488281
169,4,0.0201416,0.0402832,0.0112915,0.00701904,0.00976562,0.0219727,0.03479,0.0305176,0.0491333,0.0482178,-0.0326538,0.0140381,0.0137329
170,0,0.0192261,-0.00396729,0.0424194,0.0183105,0.0473022,0.0540161,0.0253296,0.0308228,0.0338745,0.0354004,-0.0335693,0.0253296,0.00152588
170,1,0.0308228,0.0112915,0.015564,0.020752,-0.0311279,0.032959,0.0201416,0.0271606,0.0250244,0.0241089,-0.0247192,0.0088501,0.00244141
170,2,0.012207,0.0100708,0.0167847,0.0228882,0.0244141,-0.0454712,0.0241089,0.0216675,0.0256348,0.0210571,-0.0268555,0.0183105,0.0219727
170,3,0.0262451,0.00610352,0.0189209,0.0289917,0.0198364,0.0430298,0.071106,0.0488281,0.0384521,-0.00671387,-0.0305176,0.0161743,0.0140381
170,4,0.0140381,0.00549316,0.0415039,0.0280762,0.0222778,0.0280762,0.0497437,0.043335,0.0213623,0.0231934,-0.0161743,0.00671387,-0.00152588
171,0,0.0177002,0.00762939,0.0158691,0.0350952,0.0488281,0.0265503,0.0213623,-0.0198364,0.0256348,0.0289917,-0.0280762,0.0375366,0.0143433
171,1,0.065918,0.00518799,0.0204468,0.039978,0.00579834,0.0210571,0.0100708,0.0140381,0.0283813,0.0396729,-0.0372314,0.0152588,0.0259399
171,2,0.0210571,-0.000915527,0.0268555,0.0375366,-0.0256348,0.0317383,0.0253296,0.0219727,0.0247192,0.0317383,-0.0283813,0.0137329,0.0326538
171,3,0.0289917,0.0317383,0.0201416,0.0143433,0.0238037,0.0198364,0.0332642,0.0283813,0.0292969,0.0158691,-0.0250244,0.0170898,-0.0390625
171,4,0.0198364,0.0305176,-0.00946045,0.00762939,0.022583,0.00701904,0.0500488,0.0274658,0.0308228,0.0515747,-0.0247192,0.0317383,0.0164795
172,0,0.0286865,0.0241089,0.0454712,0.0112915,0.0210571,0.0265503,0.0424194,0.0332642,0.0393677,0.0372314,-0.0265503,0.012207,0.0241089
172,1,0.0152588,0.0149536,-0.0405884,0.0158691,0.0320435,0.0320435,0.0274658,0.0247192,0.0280762,0.0158691,-0.0375366,0.0320435,0.0180054
172,2,0.0119019,0.0109863,0.0238037,0.0161743,0.0302124,0.0140381,0.0408936,0.0149536,0.020752,0.0259399,-0.0286865,0.0192261,0.0378418
172,3,0.0192261,0.0158691,0.0128174,0.015564,0.0195312,0.0219727,0.0521851,0.0137329,0.032959,0.0360107,-0.0268555,0.0320435,0.0210571
172,4,0.0527954,0.0628662,0.0170898,0.00305176,0.0540161,0.0213623,0.0323486,0.0228882,0.0234985,0.0228882,-0.0341797,0.0158691,0.0195312
173,0,0.03479,0.0219727,0.000610352,-0.00335693,0.00762939,0.0299072,-0.0134277,0.0393677,0.0198364,0.0161743,-0.0271606,0.0140381,0.0149536
173,1,0.0238037,0.0195312,0.0109863,-0.00579834,0.0149536,0.00915527,0.0314331,0.0231934,0.0421143,0.0164795,-0.0259399,0.0506592,0.0167847
173,2,0.0250244,0.0234985,0.0296021,0.0216675,0.0335693,0.0268555,0.0216675,0.0534058,0.0186157,0.0140381,-0.0320435,0.0244141,0.0189209
173,3,0.0250244,0.0299072,0.00732422,0.0100708,0.00579834,0.0393677,0.0311279,0.0292969,0.020752,0.0299072,-0.0701904,0.000610352,0.012207
173,4,0.027771,0.0308228,0.0201416,0.0161743,0.012207,0.010376,0.0317383,0.0531006,0.0256348,0.0344849,-0.0241089,0.0198364,0.00732422
