Devices
1000
,,Myon - Voltage,,,,,,,,,,,,,
Frame,Sub Frame,GC-M,TA,SOL,VM,VL,RF,BF,ST,GLUT-M,EO,Gracilis,GC-L,Semimembranosus
,,V,V,V,V,V,V,V,V,V,V,V,V,V
1,0,0.0231934,0.00488281,0.0274658,0.039978,0.0268555,0.0170898,0.0775146,0.0134277,0.0204468,-0.0296021,-0.038147,0.0137329,0.214539
1,1,0.0189209,0.000305176,0.0314331,0.0183105,0.0250244,-0.00640869,-0.0939941,0.0247192,0.0286865,0.0180054,-0.0283813,0.00335693,0.284729
1,2,0.0195312,-0.00427246,0.0317383,0.0656128,0.0363159,0.0180054,-0.0479126,0.00793457,0.0177002,0.00793457,-0.0192261,0.0198364,0.377808
1,3,0.0592041,0.00274658,0.022583,0.0299072,0.0250244,0.0131226,0.0238037,-0.00183105,0.00640869,0.0262451,-0.0100708,0.0427246,0.337219
1,4,0.0228882,-0.00854492,0.0332642,0.0354004,0.0164795,0.0143433,-0.083313,0.0100708,0.0250244,0.0244141,-0.000305176,0.0268555,0.307617
2,0,0.0430298,0.0485229,0.0274658,0.0469971,0.0134277,0.0198364,-0.0259399,0.00823975,0.020752,0.0143433,-0.0262451,-0.0106812,0.280457
2,1,-0.00518799,0.0753784,0.0158691,-0.012207,0.00854492,0.00610352,0.0979614,0.0192261,0.0198364,0.0378418,-0.0286865,0.0167847,0.247192
2,2,0.0411987,0.0653076,0.00305176,0.03479,0.0140381,0.0140381,0.00488281,0.0125122,0.0390625,0.0112915,-0.00793457,0.0396729,0.233459
2,3,0.0482178,0.015564,0.0256348,0.0311279,0.0234985,0.00671387,0.06073,0.0137329,0.0192261,0.057373,-0.0164795,0.0259399,0.231018
2,4,0.0253296,0.0234985,0.0384521,0.0384521,0.022583,-0.00183105,0.00518799,0.0106812,0.0238037,0.00518799,-0.0119019,0.0244141,0.212402
3,0,0.0256348,0.0106812,0.0231934,0.0250244,0.00549316,-0.0137329,-0.0613403,0.0317383,0.0119019,0.0201416,-0.010376,0.0210571,0.185852
3,1,0.0335693,0.0259399,0.0393677,0.0341797,0.0332642,0.00518799,0.0845337,-0.0228882,0.0158691,0.0158691,-0.00396729,0.0344849,0.178833
3,2,-0.0189209,0.0311279,0.0408936,0.0384521,0.0125122,0.0088501,0.106201,0.0161743,0.0125122,0.0167847,-0.0143433,0.0134277,0.166931
3,3,0.0244141,0.117798,0.043335,0.0244141,0.0585938,-0.00854492,0.090332,0.0341797,0.0396729,0.0283813,-0.000610352,0.0201416,0.131836
3,4,0.0192261,0.045166,0.0631714,0.0195312,0.0286865,0.0183105,0.0738525,-0.015564,0.0164795,0.0164795,-0.00152588,0.0119019,0.152283
4,0,0.0274658,0.0280762,0.0482178,0.0778198,0.0289917,0.0219727,0.0759888,0.0198364,-0.000305176,-0.0177002,-0.0106812,0.043335,0.145264
4,1,0.0177002,0.0360107,0.0558472,0.0234985,0.00335693,0.0216675,0.0738525,-0.00396729,0.00946045,0.0274658,-0.0448608,0.0283813,0.117798
4,2,-0.0308228,0.0518799,0.0546265,0.0216675,0.0238037,0.00793457,0.0515747,0.0106812,0.0088501,0.0363159,-0.00762939,0.0369263,0.0256348
4,3,-0.00213623,0.0442505,0.0613403,-0.032959,0.0302124,0.017395,0.0289917,0.00915527,0.0177002,-0.0012207,-0.022583,0.0222778,0.00549316
4,4,0.0198364,0.0463867,0.0604248,0.0204468,0.0201416,0.0100708,0.0552368,0.010376,0.00854492,0.0241089,-0.0262451,0.00946045,0.0601196
5,0,0.0265503,0.0289917,0.0704956,0.00976562,0.0567627,-0.0552368,0.0491333,0.0088501,0.0119019,0.0204468,-0.0286865,0.0360107,0.0457764
5,1,0.0250244,0.0231934,0.0964355,-0.00305176,0.027771,-0.00183105,0.055542,0.0131226,0.0186157,0.0308228,-0.0296021,0.0231934,0.0735474
5,2,0.0204468,-0.000305176,0.0726318,0.00305176,0.0460815,-0.00518799,0.0527954,0.0250244,0.0341797,0.0180054,-0.0363159,0.0234985,0.0866699
5,3,0.0259399,0.0128174,0.0524902,0.00488281,0.0363159,-0.0134277,0.0457764,0.00213623,0.010376,0.0216675,-0.0323486,0.0231934,0.0860596
5,4,0.0283813,0.00640869,0.062561,0.0527954,0.0341797,-0.0180054,0.0292969,0.0238037,0.0280762,0.0219727,-0.0369263,0.00640869,0.0881958
6,0,0.0222778,0.00457764,0.0674438,0.00549316,-0.00976562,-0.012207,0.0524902,0.0250244,-0.00946045,-0.00762939,-0.000305176,0.0152588,0.0958252
6,1,0.0350952,0.0280762,0.071106,0.0158691,0.0387573,0.00823975,0.038147,0.010376,-0.010376,-0.0167847,-0.0292969,0.0320435,0.098877
6,2,0.0201416,-0.00183105,0.0692749,-0.0164795,0.039978,0.0128174,0.050354,0.012207,0.00579834,-0.0140381,-0.038147,0.00762939,0.115967
6,3,0.0219727,0.0250244,0.0421143,0.000610352,0.0201416,0.0189209,0.0204468,0.0387573,0.012207,-0.0234985,-0.0244141,0.0637817,0.104065
6,4,0.0161743,0.0402832,0.0170898,0.00427246,0.0421143,0.0271606,0.0320435,0.0106812,0.0088501,-0.0088501,-0.0250244,0.027771,0.107727
7,0,0.00701904,0.0708008,0.050354,0.0259399,0.0238037,0.0338745,0.045166,0.0735474,0.0234985,-0.0152588,-0.0128174,0.0228882,0.0845337
7,1,0.0289917,0.0701904,0.0509644,-0.0189209,0.0302124,0.062561,-0.0137329,0.0241089,0.0137329,-0.0448608,-0.0198364,0.0219727,0.150757
7,2,-0.0350952,0.0665283,0.0479126,0.0106812,0.0311279,0.0427246,0.0482178,0.0332642,0.00305176,-0.0222778,-0.0167847,0.015564,0.0814819
7,3,0.0106812,0.0418091,0.0561523,-0.00213623,0.0375366,0.0228882,0.039978,0.0106812,0.00549316,-0.0140381,-0.00946045,0.0280762,0.0796509
7,4,0.0244141,0.0454712,0.0375366,0.00518799,0.0524902,0.0357056,0.0378418,0.0271606,0.0012207,-0.00366211,0.0137329,0.0262451,0.0735474
8,0,0.0228882,0.0448608,0.0488281,0.0158691,0.0540161,0.0170898,0.0216675,0.00976562,0.0289917,-0.00427246,-0.0167847,0.0326538,0.0808716
8,1,0.0158691,0.0167847,0.0378418,0.0164795,0.0256348,0.0140381,0.0201416,0.010376,0.0305176,0.00518799,-0.0286865,0.0189209,0.0878906
8,2,0.015564,0.0421143,0.0128174,0.0112915,0.0231934,0.0164795,0.0308228,0.0332642,0.0296021,-0.00335693,-0.0256348,0.012207,0.0747681
8,3,0.0198364,0.0192261,0.0241089,0.00213623,0.0216675,-0.00244141,0.0360107,0.017395,0.0378418,0.0244141,-0.0192261,0.0201416,0.0640869
8,4,0.0323486,0.0146484,0.0628662,0.0161743,0.0317383,0.0289917,0.0506592,0.0192261,0.0869751,0.017395,-0.0161743,0.078125,0.0723267
9,0,0.0128174,0.0192261,0.0274658,0.0143433,0.0299072,0.0152588,0.0210571,0.0213623,-0.00701904,0,-0.00518799,0.00396729,0.0689697
9,1,0.0265503,0.0222778,0.0143433,0.00305176,0.0247192,0.017395,0.0405884,0.010376,0.0161743,-0.00274658,0.00793457,0.0564575,0.0500488
9,2,0.0274658,0.00793457,0.0106812,0.0247192,0.00854492,0.0405884,0.0265503,0.0289917,0.0454712,0.00335693,-0.0125122,-0.0308228,0.0497437
9,3,0.0140381,-0.0012207,0.00976562,0.0314331,0.0271606,0.0561523,0.020752,0.0210571,0.0161743,-0.00396729,-0.0134277,0.0405884,0.0753784
9,4,0.0296021,0.00152588,0.0161743,0.00793457,0.0384521,0.0485229,0.0323486,0.0189209,0.0289917,0.0192261,-0.00366211,0.0183105,0.0473022
10,0,0.00518799,-0.00823975,0.00671387,0.03479,0.0448608,0.0491333,0.043335,0.0167847,0.0109863,-0.0494385,-0.0146484,0.00946045,0.0512695
10,1,-0.0195312,0.00488281,0.0149536,0.0198364,0.0494385,0.0411987,0.0137329,0.0286865,0.0274658,0.00946045,0.00335693,0.00396729,0.0543213
10,2,0.0100708,-0.00610352,-0.00762939,0.045166,0.038147,0.0442505,-0.0143433,0.00518799,0.0152588,0.0509644,-0.0274658,0.0088501,0.0567627
10,3,0.0137329,0.032959,0.00152588,0.0228882,0.0534058,0.0384521,0.0238037,0.0231934,0.0186157,0.0454712,-0.0125122,0.0177002,0.057373
10,4,0.0189209,0.0299072,-0.010376,0.0149536,0.00823975,0.0454712,0.0198364,0.0296021,0.0332642,0.0302124,-0.0283813,0.0286865,0.0531006
11,0,0.0204468,0.072937,-0.00488281,0.0500488,0.0299072,0.0292969,0.038147,0.0311279,0.0662231,0.0299072,-0.0222778,0.0201416,0.0479126
11,1,-0.0219727,0.0866699,-0.0241089,-0.0305176,0.0280762,0.0827026,0.0579834,0.00793457,0.055542,0.0375366,-0.0238037,0.0234985,-0.0268555
11,2,0.0350952,0.0836182,0.0244141,0.0247192,0.0424194,0.0167847,0.0268555,0.0134277,0.0335693,0.0430298,-0.0320435,0.0735474,-0.071106
11,3,0.0198364,0.0521851,0.000915527,0.0375366,0.0357056,0.062561,0.0421143,0.0372314,0.0268555,0.0180054,-0.0366211,0.0106812,-0.0570679
11,4,0.0341797,0.00732422,-0.00946045,0.0357056,0.0292969,0.071106,0.0848389,0.0283813,0.0192261,0.0842285,-0.0256348,0.0271606,0.0732422
12,0,0.0149536,-0.00946045,-0.0152588,0.0613403,0.0372314,0.0912476,0.0109863,0.0149536,0.0259399,-0.0323486,-0.0213623,0.00701904,0.0271606
12,1,0.00671387,-0.0534058,-0.00213623,0.0424194,0.0289917,0.0628662,0.0314331,0.0216675,0.0219727,0.0592041,-0.0134277,0.00610352,-0.0695801
12,2,0.0088501,-0.0848389,-0.0265503,0.0582886,0.0164795,0.0424194,0.0418091,0.0183105,0.0576782,0.0335693,-0.0201416,0.0674438,0.0665283
12,3,0.0350952,-0.0775146,-0.0234985,0.0561523,0.0350952,0.0427246,0.0369263,0.00488281,0.0283813,0.0411987,-0.0238037,0.000915527,0.0686646
12,4,0.0265503,-0.0793457,-0.0012207,0.0488281,0.022583,0.0631714,0.0338745,0.0302124,0.0332642,0.0488281,-0.0140381,0.0012207,0.0305176
13,0,0.0128174,-0.0479126,-0.0201416,0.0494385,0.098877,0.00183105,0.0335693,0.0534058,0.0350952,0.020752,-0.0256348,0.0158691,0.050354
13,1,0.0164795,-0.10437,-0.0146484,0.0460815,0.0186157,-0.00152588,0.0262451,0.0247192,0.0335693,0.0299072,-0.0286865,0.0234985,0.0921631
13,2,0.0231934,0.0805664,-0.00915527,0.0491333,0.0576782,0.0164795,0.0378418,0.0189209,0.0402832,0.00915527,-0.0305176,0.0109863,0.00976562
13,3,0.0408936,0.100098,-0.0244141,0.0524902,0.0405884,0.0332642,0.0424194,0.0439453,0.0311279,0.0204468,-0.0344849,0.010376,0.0927734
13,4,0.0231934,0.0195312,-0.0280762,0.0460815,0.0424194,0.0613403,0.0228882,0.0375366,0.0921631,0.0396729,-0.0177002,0.0765991,0.0842285
14,0,0.0250244,0.0762939,-0.0192261,0.0439453,0.0454712,0.00640869,0.022583,0.0216675,0.0485229,0.0317383,-0.0140381,0.0289917,0.00213623
14,1,0.0506592,0.0802612,0.0494385,0.0402832,0.0457764,0.0106812,0.0158691,0.0427246,0.0323486,0.0357056,-0.0219727,0.0186157,-0.0497437
14,2,0.0418091,0.0506592,0.027771,0.0836182,0.0387573,-0.0186157,-0.022583,0.03479,0.0244141,0.0250244,-0.0204468,0.0241089,-0.0158691
14,3,0.0350952,0.0735474,-0.000305176,0.0283813,0.0250244,0.0234985,0.0344849,0.0494385,0.0180054,0.0250244,-0.0283813,0.0305176,-0.241394
14,4,0.00640869,0.0241089,0.00366211,0.0247192,0.0463867,0.0518799,0.050354,-0.00335693,0.0210571,0.0088501,-0.0180054,0.0119019,-0.138855
15,0,0.0228882,-0.027771,-0.0119019,0.0350952,0.0247192,0.0708008,0.03479,0.043335,0.0128174,-0.00732422,-0.0320435,-0.000610352,0.0787354
15,1,0.00640869,-0.0253296,-0.00152588,0.0396729,0.0305176,0.0671387,0.0247192,0.0418091,0.0170898,-0.00518799,-0.0146484,0.0646973,0.11261
15,2,0.0109863,0.0564575,-0.00213623,0.0744629,0.0296021,0.0561523,0.0222778,0.0405884,0.0326538,0.00640869,-0.0265503,0.00701904,-0.113525
15,3,0.0183105,0.100708,-0.00427246,0.0543213,-0.00579834,0.0491333,0.0228882,0.0909424,0.0256348,0.000915527,-0.010376,0.00976562,-0.150452
15,4,0.0360107,0.183105,0.0469971,0.0424194,0.0106812,0.050354,0.0234985,0.0363159,0.0134277,-0.0177002,-0.017395,0.012207,0.0738525
16,0,0.0115967,0.132446,0.0140381,0.0469971,0.0210571,0.0439453,0.0393677,0.0378418,0.0228882,-0.0479126,-0.0140381,0.0161743,-0.0402832
16,1,0.0158691,0.0616455,0.0167847,0.0387573,0.0350952,0.0921631,0.0286865,0.0448608,0.00366211,-0.0140381,-0.00976562,-0.0106812,0.177307
16,2,0.0183105,0.0869751,-0.0146484,0.0524902,0.0299072,0.0454712,0.0436401,0.0344849,0.0125122,-0.00579834,-0.00762939,0.0274658,0.18219
16,3,0.0302124,0.0366211,-0.00671387,0.0674438,0.022583,0.0646973,0.0219727,0.0317383,0.045166,-0.0170898,-0.0131226,0.0088501,0.193787
16,4,-0.027771,0.0906372,-0.0137329,0.0601196,0.022583,0.057373,0.0332642,0.0308228,0.0408936,0.000915527,0.0012207,0.0256348,0.167847
17,0,-0.00488281,0.0253296,-0.00488281,0.0714111,0.0170898,0.0341797,0.032959,0.0213623,0.0128174,0.00732422,0.00976562,-0.0198364,0.150757
17,1,0.00183105,0.0131226,0.0195312,0.0314331,0.00823975,0.0186157,-0.0167847,0.0402832,0.03479,-0.0344849,-0.0280762,0.0088501,0.0808716
17,2,0.0167847,0.00152588,0.03479,0.0500488,0.00610352,0.0183105,0.0311279,0.050354,0.0332642,0.00793457,-0.0210571,-0.00915527,0.132751
17,3,0.00457764,0.00183105,0.0595093,0.0808716,-0.00762939,0.0427246,0.0314331,-0.012207,0.0430298,0.0088501,-0.0396729,0.00274658,0.108948
17,4,-0.00152588,0,0.0646973,0.0488281,0.0231934,-0.0390625,0.0256348,0.0372314,0.0109863,0.00732422,-0.062561,0.00793457,0.124512
18,0,0.010376,0.000305176,0.0189209,0.0585938,-0.045166,0.0164795,0.0268555,0.0933838,0.00701904,0.00183105,-0.00549316,0.00640869,0.111084
18,1,0.0335693,0.0216675,-0.0424194,0.0686646,0.00976562,0.0210571,0.0628662,0.0344849,0.0357056,-0.0012207,-0.0241089,0.00701904,0.0973511
18,2,0.0115967,0.020752,-0.0088501,0.0396729,0.00640869,0.0271606,0.0405884,0.0305176,0.00549316,0.0167847,-0.0305176,0.0115967,0.0878906
18,3,0.0152588,0.0137329,0.00579834,0.0393677,0.022583,-0.00640869,0.0326538,0.0219727,0.0289917,-0.00579834,-0.0216675,0.0219727,0.114441
18,4,0.0186157,0.00366211,0.00244141,0.0457764,0.020752,-0.00274658,0.0326538,0.0335693,0.0253296,-0.00457764,-0.0256348,0.0332642,0.0848389
19,0,0.0970459,-0.0180054,0.015564,-0.0268555,0.0195312,-0.0408936,0.0408936,0.0256348,0.0283813,-0.0357056,-0.050354,0.00793457,0.0332642
19,1,-0.0323486,-0.0299072,0.0354004,0.0588989,0.0088501,-0.0296021,0.0357056,0.00701904,0.0323486,0.00396729,0.00793457,0.0125122,0.0152588
19,2,0.020752,-0.0299072,0.0115967,0.0259399,-0.0448608,-0.0213623,0.0100708,0.0689697,0.0320435,-0.0198364,-0.0213623,0.0231934,0.0463867
19,3,0.0241089,-0.0213623,-0.0152588,0.0265503,0.0265503,0.00366211,0.0186157,0.0372314,0.0170898,0.0161743,-0.0265503,0.0561523,0.0753784
19,4,0.0479126,-0.0238037,0.010376,0.067749,0.0265503,-0.0131226,0.0183105,0.043335,0.0183105,-0.00305176,-0.00762939,0.0231934,0.0717163
20,0,0.017395,-0.0350952,0,0.0256348,0.039978,0.0241089,0.0222778,0.050354,0.0357056,0.0201416,-0.043335,0.0201416,0.0891113
20,1,0.0143433,-0.00671387,0.0701904,0.0418091,0.0280762,-0.0268555,0.0274658,0.0231934,0.0396729,0.0210571,-0.0372314,0.0152588,0.0805664
20,2,0.0195312,0.0167847,0.012207,0.0616455,0.0460815,0.0106812,0.0289917,0.0408936,0.0158691,0.0106812,-0.0302124,0.0106812,0.0775146
20,3,0.0253296,-0.0253296,0.0109863,0.0332642,0.038147,0.0784302,0.0201416,0.0769043,0.00976562,0.0183105,-0.0286865,0.0241089,0.0775146
20,4,0.017395,0.0238037,0.0109863,0.0445557,0.0488281,0.0643921,0.0234985,0.0442505,0.0393677,0.0189209,-0.0765991,0.0231934,0.0604248
21,0,0.0146484,0.0375366,0.017395,0.0787354,0.0494385,0.0439453,0.0714111,0.0317383,0.0375366,0.0256348,-0.0244141,0.0332642,0.0592041
21,1,0.0210571,0.020752,0.0204468,0.0524902,-0.00946045,0.0326538,0.0247192,0.0476074,0.0689697,0.0137329,-0.0231934,0.0088501,0.0668335
21,2,0.00732422,0.0421143,0.0250244,0.043335,0.0424194,-0.00579834,0.0234985,0.0375366,0.0692749,0.0210571,-0.0445557,-0.00915527,0.0674438
21,3,0.0216675,0.0479126,0.0134277,-0.0088501,0.0286865,0.0631714,0.0280762,0.0183105,0.0448608,0.0668335,-0.0320435,0.027771,0.0439453
21,4,0.020752,0.00579834,0.0250244,0.0283813,0.0396729,0.0900269,0.0241089,-0.0177002,0.045166,0.0445557,-0.0262451,0.0488281,0.0585938
22,0,0.0137329,-0.0143433,0.0177002,0.0674438,0.0283813,0.11261,0.0332642,0.0454712,0.0341797,0.0305176,-0.0170898,0.0216675,0.0457764
22,1,0.0463867,-0.0268555,0.0140381,0.0466919,0.0305176,0.119019,0.0354004,0.0305176,0.0430298,0.0167847,-0.0372314,0.0274658,0.0674438
22,2,0.0268555,-0.0463867,0.0119019,0.0601196,0.00305176,0.0817871,0.0146484,0.0274658,0.0354004,0.0244141,-0.0213623,0.0244141,0.0527954
22,3,0.0320435,-0.00579834,0.0216675,0.0421143,0.0268555,0.0585938,0.0415039,0.00671387,0.000305176,0.010376,-0.0265503,-0.0106812,0.057373
22,4,0.0161743,-0.00396729,0.0494385,0.0350952,0.0360107,0.055542,0.0317383,0.0238037,0.0418091,0.0344849,-0.0280762,0.00732422,0.0631714
23,0,0.0259399,-0.00976562,0.0253296,0.0344849,-0.00305176,0.0460815,0.0311279,0.0161743,0.0460815,0.0213623,-0.0323486,0.0283813,0.062561
23,1,0.0170898,-0.0320435,0.0271606,0.0317383,0.0338745,0.050354,0.0445557,0.0137329,0.0390625,0.0241089,-0.0296021,0.0244141,0.0473022
23,2,0.00244141,-0.0335693,0.0146484,0.0259399,0.0247192,0.0460815,0.00152588,0.0402832,0.0512695,0.0234985,-0.0152588,0.027771,0.0549316
23,3,0.00244141,0.0201416,-0.00213623,0.062561,0.0302124,0.0524902,0.0216675,0.0366211,0.0476074,0.0292969,-0.00305176,0.0149536,0.0430298
23,4,0.020752,0.0775146,0.0109863,0.0320435,0.0753784,0.0338745,0.0296021,-0.0326538,0.0494385,0.0308228,-0.0143433,0.0283813,0.078125
24,0,0.0137329,0.0244141,0.0164795,0.0198364,0.0271606,0.0210571,0.00335693,0.0344849,0.0366211,0.0430298,-0.0198364,0.0247192,0.126038
24,1,-0.0012207,0.0509644,0.0308228,0.0286865,0.0457764,0.0119019,0.0369263,0.0186157,0.0317383,0.0167847,-0.0247192,0.00823975,0.0732422
24,2,0.00335693,0.0170898,0.0387573,0.0259399,0.0469971,-0.0234985,0.0302124,0.0375366,-0.0234985,0.0482178,-0.0289917,0.0204468,0.0445557
24,3,-0.000305176,0.022583,0.0280762,0.0219727,0.110779,0.00762939,0.0265503,0.015564,0.0216675,0.0250244,-0.032959,0.00518799,0.0299072
24,4,0.0543213,0.0146484,0.0213623,0.0479126,0.0360107,0.0088501,0.0183105,0.0317383,0.0375366,0.0296021,-0.0610352,0.0192261,0.0241089
25,0,0.0656128,0.00976562,0.0286865,0.0384521,0.0137329,0.0210571,0.0128174,0.0186157,0.0152588,-0.00183105,-0.0320435,0.00488281,0.0286865
25,1,0.0292969,0.0119019,0.020752,0.00549316,0.0466919,0.0128174,0.0970459,0.0402832,0.0378418,0.0494385,-0.0448608,0.0152588,0.017395
25,2,0.0183105,0.00640869,0.0317383,0.0186157,0.03479,0.0167847,0.0274658,0.0363159,0.0292969,-0.00701904,-0.0683594,0.0189209,0.022583
25,3,0.017395,-0.0134277,0.0393677,0.0250244,0.0262451,0.0231934,0.0314331,0.0268555,0.00427246,0.0128174,-0.0421143,0.0259399,0.0341797
25,4,0.0274658,0.00244141,0.0680542,0.0219727,0.0378418,0.010376,0.0271606,0.0195312,0.0271606,0.0149536,-0.0527954,0.0286865,0.043335
26,0,-0.032959,0.00762939,0.0393677,0.00701904,0.0164795,0.00396729,0.0167847,0.0454712,0.0360107,0.012207,-0.0476074,0.038147,0.0476074
26,1,0.0167847,0.0109863,0.0494385,0.0158691,0.0149536,-0.00305176,-0.00976562,0.0476074,0.0189209,-0.0219727,-0.0378418,0.0338745,0.088501
26,2,0.0463867,-0.00244141,0.0500488,0.00457764,0.00335693,-0.00305176,0.0256348,0.0518799,0.0213623,0.0222778,-0.0421143,0.0256348,0.0894165
26,3,0.032959,-0.00518799,0.0537109,-0.000305176,0.0274658,-0.0350952,0.0286865,0.0311279,-0.0201416,0.0210571,-0.0488281,0.017395,0.118713
26,4,0.0335693,-0.0482178,0.0634766,0.00305176,0.0140381,0.00915527,0.0161743,0.022583,0.0146484,0.0238037,-0.0393677,0.03479,0.122681
27,0,0.0320435,0.0088501,0.050354,0.00183105,0.0088501,0.0454712,0.0164795,0.0543213,0.0497437,0.0280762,-0.0457764,0.0204468,0.129089
27,1,0.0488281,0.0405884,0.0473022,0.0268555,0.020752,0.0405884,-0.0164795,0.0296021,0.0167847,0.0567627,-0.000305176,0.0265503,0.132446
27,2,0.0320435,0.020752,0.0668335,0.00915527,0.0320435,0.038147,0.0262451,0.0296021,0.0106812,0.0204468,-0.0369263,-0.0161743,0.123596
27,3,0.022583,0.0250244,0.0686646,0.017395,0.0177002,0.0189209,0.032959,0.0271606,0.0219727,0.0296021,-0.0317383,0.0302124,0.169067
27,4,0.045166,0.0250244,0.050354,-0.0308228,0.0140381,0.00732422,0.0363159,0.0341797,0.0332642,0.0344849,-0.0195312,0.0308228,0.629883
28,0,0.0234985,-0.0119019,0.0738525,0.0259399,0.0012207,0.00213623,0.0216675,0.0363159,0.0411987,0.0390625,-0.0311279,0.0259399,3.04413
28,1,0.0234985,-0.00701904,0.0335693,0.0308228,-0.0109863,0.0439453,0.0186157,0.039978,-0.000915527,0.0320435,-0.00671387,0.0805664,3.09265
28,2,0.0326538,-0.0106812,0.0445557,0.0183105,-0.00335693,0.0256348,0.0332642,-0.0256348,0.0427246,0.0384521,0.0253296,0.0250244,2.98431
28,3,0.0283813,-0.0180054,0.0732422,0.0292969,-0.0186157,0.0125122,0.0228882,0.0308228,0.0415039,0.0396729,-0.00701904,0.0704956,2.84149
28,4,-0.00366211,0.0134277,0.0283813,0.00946045,-0.00488281,0.0546265,0.0231934,0.0299072,0.0363159,0.0292969,0.00854492,0.0222778,2.76459
29,0,0.0427246,0.0286865,0.0366211,0.0241089,-0.00152588,0.0442505,0.00762939,0.0311279,0.0411987,0.03479,-0.0088501,0.0314331,2.66663
29,1,0.0344849,0.0576782,0.0747681,0.0149536,0.00396729,0.0415039,0.0262451,0.0338745,0.0396729,0.0088501,-0.0128174,0.0341797,2.56897
29,2,0.00427246,0.0405884,0.0537109,0.0180054,-0.00915527,0.0527954,0.0137329,0.0256348,0.0479126,0.100098,-0.00640869,0.0408936,2.51404
29,3,0.0198364,0.0143433,0.0524902,-0.0360107,-0.00701904,0.0714111,0.0247192,0.0271606,0.0408936,0.0119019,-0.0125122,0.0299072,2.40143
29,4,0.00701904,0.0357056,0.0613403,0.00946045,-0.020752,0.0418091,0.0140381,0.0421143,0.0296021,0.0302124,-0.0125122,0.0372314,2.32086
30,0,0.0250244,0.0274658,0.0469971,-0.00549316,-0.0238037,0.0161743,0.0192261,0.0326538,-0.0326538,0.0314331,-0.0198364,-0.0109863,2.24365
30,1,0.0100708,0.0393677,0.0335693,-0.055542,0.03479,0.0610352,0.0241089,0.03479,0.03479,0.0314331,-0.0210571,0.0250244,2.15881
30,2,0.0213623,0.0552368,0.0259399,-0.0146484,-0.0610352,0.0796509,0.0128174,0.0408936,0.0335693,0.0262451,-0.0311279,0.0350952,2.0871
30,3,0.0552368,0.0799561,0.015564,0.0106812,-0.0680542,0.0164795,0.0234985,0.0299072,0.0341797,0.0296021,-0.0302124,0.0152588,2.02911
30,4,0.0424194,0.117798,0.0222778,-0.0201416,-0.0646973,-0.00854492,0.0296021,0.032959,0.0265503,0.0262451,-0.0393677,0.0238037,1.95129
31,0,0.0485229,0.0497437,0.0326538,0.0137329,-0.109863,-0.0283813,0.0234985,0.00305176,0.0531006,0.0360107,-0.0131226,0.0518799,1.88416
31,1,0.0418091,-0.0244141,0.0100708,0.00396729,-0.0534058,0.00335693,0.0128174,0.0296021,0.0323486,0.0305176,-0.0415039,0.0164795,1.51978
31,2,0.0271606,-0.00213623,0.0119019,-0.00671387,-0.0482178,0.0256348,0.0180054,0.0283813,0.00671387,0.0195312,-0.0543213,0.0186157,1.1203
31,3,0.0436401,0.0134277,0.0161743,0.0213623,-0.0137329,0.0332642,0.0143433,-0.0216675,0.0164795,0.0341797,-0.0527954,0.0201416,0.947266
31,4,0.0302124,0.00976562,0.0125122,0.0088501,-0.0311279,-0.0323486,0.0228882,0.0265503,0.0100708,0.0231934,-0.0564575,0.0320435,0.897217
32,0,0.03479,0.0448608,0.0115967,0.020752,-0.0299072,0.0134277,0.0299072,0.0308228,0.00305176,-0.0241089,-0.0735474,0.0439453,0.821533
32,1,0.0436401,0.0518799,0.0146484,0,0.00732422,-0.00152588,0.0402832,0.0271606,-0.00732422,0.0341797,-0.0735474,0.0183105,0.617371
32,2,0.027771,0.119019,0.0149536,0.0131226,0.0238037,-0.0387573,0.0262451,-0.0164795,-0.0170898,0.0234985,-0.0756836,0.0350952,0.361938
32,3,0.0643921,0.0784302,0.00244141,0.0158691,0.00518799,-0.0424194,0.012207,0.0161743,-0.00152588,0.0411987,-0.0686646,0.0308228,0.0534058
32,4,0.0326538,0.065918,-0.00854492,0.0115967,-0.0445557,-0.0323486,0.0338745,0.0164795,0.0271606,0.0302124,-0.0531006,0.0354004,-0.214233
33,0,0.0396729,0.0546265,-0.00793457,0.00915527,0.0158691,-0.0317383,0.0234985,0.0344849,0.0088501,0.0210571,-0.0619507,0.0283813,-0.616455
33,1,0.0292969,0.0497437,-0.00671387,-0.000610352,0.0320435,-0.0241089,0.0350952,0.0170898,0.00946045,0.0384521,-0.0482178,0.0436401,-0.92804
33,2,0.0354004,0.0341797,-0.00823975,0.00701904,0.0189209,0.00366211,0.0369263,0.0137329,-0.0012207,0.0360107,-0.0369263,0.0418091,-1.08002
33,3,0.0189209,0.0320435,-0.0396729,0.00762939,0.0112915,0.00183105,0.0405884,0.0088501,0.0128174,0.0177002,-0.0253296,0.0289917,-1.16089
33,4,0.0213623,0.0250244,-0.00640869,0.0231934,0.022583,0.0109863,0.0244141,0.00274658,0.0164795,0.0482178,-0.0149536,0.0228882,-1.22101
34,0,0.0515747,-0.0012207,-0.00732422,0.027771,0.010376,0,0.0350952,0.000915527,0.0259399,0.0518799,-0.0149536,0.0201416,-1.31073
34,1,0.03479,0.0314331,-0.0100708,0.00671387,0.0793457,0.0210571,0.0256348,0.0152588,0.032959,0.0219727,-0.0088501,0.0256348,-1.40472
34,2,0.0241089,-0.0509644,-0.00732422,0.0152588,-0.0109863,0.0216675,-0.0430298,0.0186157,0.0411987,0.0415039,0.00305176,0.0344849,-1.46332
34,3,0.0247192,-0.0534058,0.0198364,0.0158691,-0.00854492,0.0134277,0.00976562,0.0131226,0.045166,0.0369263,-0.00488281,0.0872803,-1.48102
34,4,0.0274658,-0.0445557,0.0137329,0.0296021,0.0164795,0.0219727,0.00793457,0.0375366,0.0253296,0.0265503,0.00244141,0.0396729,-1.52496
35,0,0.0308228,-0.0344849,0.00640869,0.0161743,-0.0372314,0.0177002,0.0198364,0.0192261,0.045166,0.0326538,-0.0421143,0.0302124,-1.47308
35,1,0.0540161,-0.0372314,0.0186157,0.0299072,-0.0140381,0.0167847,0.0228882,0.0296021,0.0283813,-0.00823975,-0.0119019,0.0088501,-1.52161
35,2,0.0286865,-0.0341797,0.0143433,0.0241089,0.0231934,0.0112915,0.0152588,0.022583,0.0250244,-0.0262451,0.0164795,0.0372314,-1.64886
35,3,0.0320435,0.0283813,0.0216675,0.0201416,0.0344849,0.0152588,0.00823975,0.00946045,0.0357056,-0.0418091,-0.00854492,0.0262451,-1.75842
35,4,0.067749,0.0134277,0.00488281,0.0613403,0.0271606,0.0088501,0.0161743,0.0164795,0.039978,-0.032959,-0.0256348,0.0311279,-1.96167
36,0,0.0375366,-0.00152588,-0.00274658,0.00335693,0.11261,0.00854492,0.0219727,0.010376,0.0350952,-0.0326538,-0.0250244,0.072937,-1.79932
36,1,0.0369263,0.0140381,0.0402832,0.0131226,0.166626,0.00183105,0.0100708,0.0238037,0.0292969,-0.03479,-0.0344849,0.0247192,-1.60492
36,2,0.0317383,0.00823975,0.0164795,0.00671387,0.145569,-0.0341797,0.0286865,0.0088501,-0.00335693,-0.00762939,-0.0372314,0.0491333,-1.71692
36,3,0.0918579,-0.0265503,0.00274658,0.0216675,0.140076,-0.00488281,0.0189209,0.0152588,0.0244141,-0.00915527,-0.0338745,0.0296021,-1.92535
36,4,0.0390625,-0.0595093,0.0109863,0.0115967,0.0354004,-0.00244141,0.0244141,0.0177002,0.0256348,-0.00274658,-0.0491333,0.0323486,-1.89972
37,0,0.0393677,-0.0390625,0.0137329,0.0131226,0.00915527,-0.0363159,0.0131226,-0.0305176,0.0244141,0.0012207,-0.106506,0.0296021,-1.95709
37,1,0.0430298,0.0152588,-0.0244141,0.022583,0.0280762,-0.0326538,0.020752,0.00915527,0.0518799,-0.00244141,-0.0619507,0.0183105,-2.1524
37,2,0.0363159,0.0961304,0.012207,0.0137329,0.038147,0.0125122,0.0149536,0.0354004,0.00640869,0.0323486,-0.0610352,0.0344849,-2.80548
37,3,0.0323486,0.166321,0.0186157,0.0170898,0.00549316,0.00366211,0.020752,0.0292969,-0.0125122,0.0357056,-0.0613403,0.0799561,-3.15155
37,4,0.0222778,0.129395,0.0088501,0.0265503,0.00549316,0.0344849,0.0402832,0.0125122,-0.00579834,0.0515747,-0.0418091,0.0320435,-3.14484
38,0,0.0387573,0.0811768,0.00976562,0.0228882,-0.000915527,0.0164795,0.0338745,0.00244141,0.0112915,0.0491333,-0.0567627,0.0964355,-3.05389
38,1,0.0286865,0.0701904,0.0115967,0.0234985,0.0149536,0.0357056,-0.00457764,0.00671387,0.0238037,0.0592041,-0.0402832,0.0372314,-2.99164
38,2,0.0210571,0.0643921,0.00640869,0.0372314,-0.0210571,0.0244141,-0.110474,-0.0152588,0.00152588,0.050354,-0.0570679,0.0286865,-2.91168
38,3,0.012207,0.0595093,0.0189209,0.0363159,-0.00305176,0.032959,-0.223389,-0.00976562,0.00518799,0.0320435,-0.0213623,0.0210571,-2.8656
38,4,0.0152588,0.0543213,-0.00488281,0.0241089,-0.0360107,0.022583,-0.098877,-0.0701904,0.0189209,0.0714111,-0.0131226,0.0302124,-2.64771
39,0,-0.0140381,0.105286,0.00488281,0.0247192,0.0125122,0.0338745,-0.055542,-0.0198364,0.00762939,0.0494385,-0.00701904,0.0228882,-2.11609
39,1,0.038147,0.0991821,0.0222778,0.0335693,0.0238037,0.055542,0.0701904,-0.0350952,0.0183105,-0.000915527,-0.00549316,0.0177002,-2.64679
39,2,0.0335693,0.112305,0.0088501,0.078125,0.0219727,0.0518799,0.0997925,-0.0170898,0.00793457,0.0305176,-0.0167847,0,-2.07123
39,3,0.0140381,0.0973511,0.00732422,0.0112915,0.0567627,0.0244141,0.139465,-0.0445557,0.0244141,0.0332642,-0.0115967,0.020752,-1.46637
39,4,0.0241089,0.0942993,-0.00274658,0.0360107,0.065918,0.0228882,0.105896,-0.0308228,0.00762939,0.0369263,-0.00854492,0.0143433,-1.25092
40,0,0.0216675,0.108337,0.00823975,0.039978,0.0424194,0.0161743,0.0808716,-0.0418091,0.0183105,0.0512695,-0.0131226,0.0241089,-1.1972
40,1,0.0405884,0.0509644,0.00762939,0.0241089,0.0454712,0.0213623,0.0921631,0.00762939,0.0283813,0.0338745,-0.0219727,0.0247192,-1.1145
40,2,0.032959,0.0918579,0.010376,0.0286865,0.0869751,0.0866699,0.0808716,0.017395,-0.0228882,0.0445557,-0.0320435,0.0268555,-1.03455
40,3,0.0366211,0.0396729,0.020752,0.0228882,0.0802612,0.0350952,0.0976562,0.0588989,-0.00183105,0.038147,-0.0131226,0.00610352,-0.912476
40,4,0.0280762,0.0146484,0.032959,0.0463867,0.0692749,0.0216675,0.0909424,0.0436401,0.0106812,0.0469971,-0.0177002,0.0219727,-0.704956
41,0,0.0250244,0.0442505,0.0610352,0.0247192,0.065918,0.0189209,0.0750732,0.0469971,0.000305176,0.0485229,-0.0186157,0.0262451,-0.753174
41,1,0.0231934,0.0714111,0.0219727,0.0222778,0.088501,0.0112915,0.027771,0.0488281,0.0201416,0.0534058,-0.0146484,0.0152588,-0.682068
41,2,0.0302124,0.010376,0.0308228,0.0469971,0.123596,0.0146484,0.0576782,0.0674438,0.0109863,0.0299072,-0.0250244,0.0387573,-0.845337
41,3,0.0128174,0.0363159,0.032959,0.0350952,0.0613403,-0.000610352,-0.153198,0.0750732,0.00396729,0.0610352,-0.0247192,0.0332642,-1.20239
41,4,0.0286865,-0.00732422,0.0247192,0.012207,0.107117,-0.0408936,-0.343018,0.101929,0.015564,0.0576782,-0.0411987,0.0186157,-1.08673
42,0,0.0170898,0.0390625,0.0466919,0.0350952,0.0476074,-0.0592041,-0.0494385,0.0683594,0.0247192,0.0195312,-0.0305176,-0.0247192,-0.981445
42,1,0.0369263,-0.0363159,0.0134277,0.0228882,0.0283813,-0.0634766,0.0753784,0.0830078,0.00762939,0.0445557,-0.038147,0.0146484,-0.887146
42,2,0.032959,0.00915527,0.0140381,0.0289917,0.0396729,-0.0820923,0.027771,0.0152588,0.0167847,0.0640869,-0.0439453,0.0320435,-0.863342
42,3,0.0320435,0.0137329,0.000915527,0.0408936,0.0311279,-0.0753784,0.0674438,0.027771,0.0201416,0.0717163,-0.0500488,0.0280762,-0.683289
42,4,0.0180054,0.0204468,0.0546265,0.00244141,0.0250244,-0.0756836,0.0756836,0.0546265,0.0186157,0.0628662,-0.0369263,0.0439453,-0.425415
43,0,0.0161743,0.0088501,0.0177002,0.0274658,0.0387573,-0.0479126,0.0408936,0.067749,0.0119019,0.0613403,0.0177002,0.0259399,-0.422058
43,1,0.0143433,0.00488281,0.0408936,0.00427246,0.0186157,0.043335,0.0119019,0.065918,0.0149536,0.0610352,-0.0320435,0.0219727,-0.39093
43,2,0.0292969,0.00213623,0.0552368,0.00579834,0.0479126,0.0582886,0.0305176,0.0527954,0.0106812,0.0576782,-0.0204468,0.0167847,-0.149841
43,3,0.043335,0.0088501,0.0210571,0.0195312,0.0509644,0.0775146,-0.0411987,0.0622559,0.0109863,0.0457764,-0.00518799,0.00640869,-0.113525
43,4,0.0192261,0.00518799,0.0369263,0.00213623,0.0448608,0.10498,0.00183105,0.0439453,0.0158691,0.0558472,-0.0125122,0.0201416,-0.0588989
44,0,0.00457764,0.0231934,0.0305176,0.0299072,0.0488281,0.114136,0.020752,0.0405884,0.0115967,0.0445557,-0.0201416,0.0183105,0.0479126
44,1,0.0268555,-0.00305176,0.032959,-0.0109863,0.0335693,0.171814,0.0595093,0.0378418,0.0723267,0.0732422,-0.00976562,0.0180054,0.107727
44,2,0.0247192,0.0128174,0.0262451,0.0238037,0.0366211,0.13916,0.0628662,0.0119019,0.012207,0.043335,0.0305176,0.022583,0.238342
44,3,0.0302124,0.0296021,0.0314331,0.0448608,0.0274658,0.0836182,-0.0683594,0.062561,0.0210571,0.0537109,-0.0274658,0.0305176,0.332031
44,4,-0.00183105,0.0140381,0.0296021,0.0531006,0.0216675,0.0958252,0.0695801,0.0234985,-0.00823975,0.0405884,0.0088501,0.0244141,0.403442
45,0,0.0262451,0.00152588,0.0204468,0.0402832,0.0177002,0.0924683,0.0866699,0.0216675,-0.027771,0.0396729,-0.0241089,-0.0247192,0.440369
45,1,0.0411987,0.00518799,-0.0201416,0.0320435,0.0189209,0.142822,0.0390625,0.0198364,-0.0149536,0.0372314,-0.0210571,0.0158691,0.461426
45,2,0.0308228,0.00701904,0.0210571,0.0463867,-0.00213623,0.0741577,0.0888062,0.0158691,-0.0112915,0.0469971,-0.0326538,0.0222778,0.517883
45,3,0.0158691,-0.000610352,0.0265503,0.0253296,0.00762939,0.0802612,0.0888062,0.0128174,-0.0146484,0.0543213,-0.0653076,0.00579834,0.557556
45,4,-0.00396729,0.0125122,0.0918579,0.0454712,0.00579834,0.106201,0.0958252,0.0195312,-0.0570679,0.0466919,-0.0274658,0.0592041,0.565796
46,0,0.0274658,-0.00793457,0.0341797,0.0161743,0.00762939,0.0753784,0.0869751,0.0198364,-0.0253296,0.0491333,0.0204468,0.0241089,0.644226
46,1,0.0283813,0.0335693,0.0262451,0.0177002,-0.00976562,-0.00518799,0.0775146,0.00946045,-0.0146484,0.0466919,-0.0491333,0.0335693,0.673828
46,2,0.00518799,0.00823975,0.0323486,0.0387573,-0.0167847,-0.00152588,0.0662231,-0.00549316,-0.0177002,0.0289917,-0.0613403,0.0167847,0.684509
46,3,-0.00183105,0.0219727,0.0296021,0.0112915,-0.0210571,-0.012207,0.0701904,0.0177002,-0.0158691,0.038147,-0.0570679,0.0152588,0.682068
46,4,0.0134277,-0.000305176,0.039978,0.0259399,-0.0146484,-0.00915527,0.071106,0.0213623,-0.0146484,0.0262451,-0.0643921,0.0363159,0.681152
47,0,0.0250244,0.0204468,0.0289917,0.010376,-0.00274658,-0.0811768,0.0830078,0.00915527,-0.0137329,0.0180054,-0.0479126,0.0311279,0.665894
47,1,0.0231934,0.0186157,0.0479126,0.00549316,-0.000305176,-0.017395,0.0769043,0.0152588,-0.015564,0.0671387,-0.043335,0.0149536,0.750427
47,2,0.0247192,0.0280762,0.0341797,0.00335693,-0.00579834,-0.0149536,0.0512695,0.0106812,-0.00427246,0.0283813,-0.0338745,0.0186157,0.723877
47,3,0.0250244,0.0146484,0.0344849,0.00335693,0.0198364,0.00335693,0.0613403,0.00976562,0.00762939,0.0564575,-0.0411987,0.0372314,0.746765
47,4,0.0219727,0.0152588,0.0280762,0,0.0198364,0.00305176,0.0527954,0.0192261,0.0271606,-0.00915527,-0.0332642,0.0244141,1.09924
48,0,0.0415039,0.00579834,0.0442505,0.00518799,0.0482178,0.0634766,0.0430298,0.0219727,-0.0366211,0.0247192,-0.0238037,0.0253296,1.185
48,1,0.0164795,0.0244141,0.0601196,0.00854492,0.0488281,0.0100708,0.0622559,0.0137329,0.00701904,0.0268555,-0.00793457,0.0305176,1.21979
48,2,0.0167847,0.0375366,0.0521851,0.0128174,0.0250244,0.027771,0.0326538,-0.045166,-0.00823975,0.0177002,-0.00549316,0.0305176,1.45996
48,3,0.0241089,0.00915527,0.0363159,-0.00274658,0.0823975,0.0231934,0.0247192,0.00305176,0.00854492,0.0250244,-0.0180054,0.0323486,1.3797
48,4,0.00946045,0.0268555,0.045166,0.00579834,0.0811768,0.0170898,0.0418091,-0.0405884,0.0109863,0.0354004,-0.00518799,0.0430298,1.38947
49,0,0.0134277,0.0128174,0.0436401,0.00518799,0.102844,0.0320435,0.00671387,-0.00244141,0.00274658,0.0375366,-0.00701904,0.010376,0.776367
49,1,0.0119019,0,-0.0012207,-0.0115967,0.0323486,0.0436401,0.00762939,0.0387573,0.0109863,0.0204468,-0.00274658,0.0198364,0.689087
49,2,0.0216675,0.00701904,0.0164795,0.015564,0.0808716,0.0466919,-0.0793457,0.0192261,0.0109863,0.0247192,-0.00701904,0.0143433,1.62109
49,3,0.0213623,-0.0012207,0.0115967,0.0100708,0.0469971,0.0189209,0.00488281,0.0332642,0.0161743,0.0332642,-0.00762939,0.0109863,2.08954
49,4,0.00976562,0.0198364,0.0323486,-0.00488281,0.0637817,0.0271606,0.020752,0.0189209,0.00396729,0.0512695,-0.0180054,0.0183105,2.14905
50,0,0.0012207,-0.0131226,0.0350952,0.00946045,0.078125,-0.00854492,0.0146484,-0.032959,0.00427246,0.0201416,-0.0149536,0.0314331,2.47955
50,1,0.0259399,-0.00579834,0.0183105,0.0808716,0.0598145,-0.0177002,-0.0292969,0.0170898,0.0119019,0.032959,-0.0253296,0.0289917,2.69165
50,2,0.022583,-0.0100708,0.0424194,0.0158691,0.0582886,-0.0357056,0.0305176,-0.0204468,0.032959,0.027771,-0.0112915,0.0152588,2.74353
50,3,0.0146484,-0.00518799,0.0497437,0.0152588,0.0460815,-0.0332642,0.0305176,0.00518799,-0.00793457,0.0210571,-0.0250244,0.0308228,2.76245
50,4,0.0350952,-0.00396729,0.0384521,0.000305176,0.0213623,-0.055542,0.0177002,0.0320435,0.0540161,0.038147,-0.0164795,0.0326538,2.69257
51,0,0.0210571,0.0320435,0.022583,0.00579834,0.0640869,-0.0717163,0.0354004,0.0088501,-0.000915527,0.0378418,-0.0192261,0.0479126,2.57111
51,1,0.0201416,0.0231934,0.0244141,-0.0106812,0.0262451,-0.0354004,-0.00335693,0.0125122,0.0210571,0.0387573,-0.0149536,0.0149536,2.38098
51,2,0.00701904,0.0320435,-0.038147,0.00366211,0.0149536,-0.126038,0.0128174,0.00274658,0.0250244,0.0186157,-0.00793457,0.0198364,2.26532
51,3,0.0247192,0.0317383,0.0387573,0.0137329,0.020752,-0.022583,0.039978,0.0250244,0.0146484,0.0512695,-0.0149536,0.0213623,0.662842
51,4,0.0146484,0.00488281,0.0222778,0.000915527,0.0775146,0.0415039,-0.177612,0.0854492,0.00213623,0.027771,-0.017395,0.0378418,0.650024
52,0,0.0247192,0.0408936,0.0408936,0.00183105,-0.09552,0.117798,-0.0247192,0.0231934,0.0216675,0.0268555,-0.0183105,0.0289917,1.23169
52,1,0.0152588,-0.00732422,0.0262451,-0.00396729,-0.00946045,0.062561,0.0576782,0.0238037,0.0158691,0.0125122,-0.0360107,0.00946045,1.21368
52,2,0.0195312,0.0457764,0.0213623,-0.00213623,-0.0653076,0.0537109,0.0543213,0.0115967,-0.00274658,0.0241089,-0.0396729,0.0131226,1.55579
52,3,0.0415039,0.0375366,0.0320435,-0.00793457,-0.10498,0.0350952,0.0762939,0.0167847,0.00274658,0.027771,-0.0680542,0.015564,1.68915
52,4,0.0170898,0.0192261,0.00549316,-0.0378418,-0.0582886,0.0299072,0.0128174,0.0131226,0.0204468,0.0338745,-0.0512695,0.0241089,1.68121
53,0,0.0643921,0.032959,0.0326538,-0.00518799,-0.0338745,0.0518799,0.0350952,-0.000915527,0.0189209,0.0326538,-0.0332642,0.0164795,1.60553
53,1,0.0265503,0.0286865,0.0341797,-0.0216675,-0.0204468,0.055542,-0.475464,0.0216675,-0.00244141,0.0161743,-0.043335,0.0280762,1.55914
53,2,0.0665283,0.0219727,0.0384521,-0.0631714,-0.0534058,0.0537109,-0.269775,0.0350952,0.0180054,0.022583,-0.065918,0.0268555,1.49719
53,3,0.00976562,0.00305176,0.0317383,0.00274658,-0.0769043,0.0784302,-0.556335,0.0354004,0.015564,0.0204468,-0.0341797,0.0387573,1.43677
53,4,0.0134277,0.0201416,0.0497437,-0.010376,0.0192261,0.0454712,0.213623,0.0183105,0.017395,0.0354004,-0.03479,0.0213623,1.33087
54,0,0.00305176,0.0268555,0.0378418,-0.00732422,0.0241089,0.0131226,0.188293,0.0189209,0.0924683,0.032959,-0.0259399,0.0402832,1.20789
54,1,0.027771,0.0222778,0.0326538,0.00457764,0.128479,0.0769043,-0.159607,-0.0119019,0,0.0186157,-0.0363159,0.00610352,0.210876
54,2,0.0119019,0.0332642,0.0421143,0.0234985,0.0961304,0.0933838,0.169678,0.0234985,0.00976562,0.0292969,-0.0164795,0.0302124,0.437927
54,3,0.00976562,0.0302124,0.0360107,-0.0152588,-0.00823975,0.065918,0.19928,0.0250244,0.0186157,0.0213623,0.00274658,0.039978,0.426941
54,4,0.0210571,0.0350952,0.0363159,0.0201416,0.083313,0.0656128,0.184937,0.0137329,0.0598145,0.0219727,0.0213623,-0.010376,0.0442505
55,0,0.0106812,0,0.0289917,0.0390625,0.038147,0.0222778,0.163574,0.0213623,0.0186157,0.00915527,0.00335693,0.0274658,-0.404663
55,1,0.0231934,0.0582886,0.0250244,0.0228882,0.0521851,0.022583,0.153198,0.022583,-0.00183105,0.0119019,0.00579834,0.00488281,-0.0119019
55,2,0.00244141,0.0396729,0.0341797,0.0244141,0.0619507,0.0247192,0.144653,0.0396729,0.0164795,0.0241089,0.00213623,0.0375366,0.223999
55,3,0.0180054,0.00823975,0.0219727,0.020752,0.108643,0.00793457,0.122375,0.0335693,0.0341797,0.00335693,-0.0112915,0.0280762,0.319214
55,4,0.0393677,0.00579834,0.0497437,0.0143433,0.0881958,0.0271606,0.124817,0.0262451,0.0546265,0.0323486,-0.00549316,0.0366211,0.0518799
56,0,0.00701904,-0.00427246,0.0286865,0.0201416,0.0994873,0.0198364,0.110474,0.0418091,0.0299072,0.0253296,-0.0436401,0.0192261,0.109558
56,1,0.015564,0.0247192,0.0286865,0.0302124,0.100708,-0.0283813,0.101624,0.017395,0.0500488,0.00152588,-0.00671387,0.0146484,0.136719
56,2,0.022583,0.0247192,0.043335,0.0137329,0.11261,0.0335693,0.0845337,-0.0146484,0.0427246,0.0198364,-0.00152588,0.0259399,0.0982666
56,3,0.0402832,0.0088501,0.0274658,0.0537109,0.0888062,0.0302124,-0.0888062,0.0292969,0.0314331,0.000915527,-0.00701904,0.0314331,0.0875854
56,4,0.027771,0.0109863,0.00793457,0.0112915,0.0839233,0.0210571,0.00823975,0.00732422,0.0357056,-0.0161743,-0.0170898,0.0292969,-0.00366211
57,0,0.0274658,0.0344849,0.0320435,0.022583,0.0637817,0.0305176,-1.10107,0.0128174,0.0402832,-0.0393677,-0.0100708,0.0204468,-0.0662231
57,1,0.00610352,0.0338745,0.0189209,-0.00183105,0.0787354,0.0186157,-0.0012207,0.0213623,0.0460815,-0.0512695,-0.0112915,0.0149536,0.0271606
57,2,0.00823975,0.0271606,0.0387573,0.0131226,0.0411987,0.0256348,-0.098877,0.0143433,0.032959,0,-0.0247192,0.0228882,0.0186157
57,3,0.0119019,-0.00671387,0.0335693,0.0177002,0.0234985,0.017395,0.187073,0.0320435,0.0344849,-0.00213623,-0.0341797,0.0250244,0.00457764
57,4,0.0210571,0.0012207,0.0112915,0.0219727,0.0857544,0.0167847,0.221558,0.0250244,0.0317383,0.0183105,-0.0689697,0.00793457,-0.98938
58,0,0.0115967,0.0424194,0.0332642,0.00946045,0.050354,-0.0134277,0.223999,0.0244141,0.0238037,-0.00518799,-0.0311279,0.0375366,-2.02209
58,1,0.0137329,0.102539,0.0360107,0.0192261,0.00762939,-0.00274658,0.194397,0.0506592,0.0180054,0.00671387,-0.0387573,0.0222778,-2.19727
58,2,0.0170898,0.0222778,0.022583,0.010376,0.055542,-0.0106812,0.157471,0.0357056,0.0244141,-0.0234985,-0.0250244,0.0137329,-2.13104
58,3,0.012207,0.0393677,-0.00549316,0.0189209,0.0585938,0.0131226,0.156555,0.0280762,0.0421143,0.0131226,-0.0247192,0.0241089,-1.89453
58,4,0.0189209,0.0509644,0.0283813,0.0234985,0.0592041,-0.0088501,0.171814,0.0408936,0.0280762,-0.0393677,-0.0219727,0.0253296,-1.58508
59,0,0.0234985,0.103149,0.0241089,0.0241089,0.0747681,0.00335693,0.141907,-0.0180054,0.0323486,0.0247192,-0.0204468,0.0177002,-1.18408
59,1,0.0375366,0.0393677,0.017395,0.0231934,0.0491333,0.00671387,0.0891113,0.0283813,0.0537109,-0.0274658,-0.0134277,0.0372314,-0.649414
59,2,0.0112915,0.0201416,0.022583,0.0195312,0.03479,0.0198364,0.118103,0.0238037,0.0164795,0.0186157,-0.0012207,0.0262451,-0.378113
59,3,0.0186157,0.000305176,0.0292969,0.0204468,0.0601196,0.0369263,0.109863,0.0634766,0.0247192,0.0234985,0.010376,0.0192261,-0.194702
59,4,0.0286865,0.0201416,0.0387573,0.0231934,0.0302124,0.0439453,0.0985718,0.0274658,0.0192261,0.020752,-0.00854492,0.0177002,-0.101013
60,0,0.0274658,0.0177002,0.0210571,0.0201416,0.0534058,0.0411987,0.093689,0.038147,0.0320435,0.0115967,-0.0137329,0.0231934,-0.0564575
60,1,0.0250244,-0.000305176,0.0317383,0.0247192,0.0454712,0.0521851,0.0976562,0.0280762,0.0210571,-0.0100708,-0.020752,0.0204468,-0.140076
60,2,0.0128174,0.0177002,0.0292969,0.0344849,0.0146484,0.0216675,0.0942993,0.0354004,-0.00579834,0.0262451,-0.010376,-0.0289917,-3.17993
60,3,-0.0170898,0.0109863,0.0177002,0.0210571,0.0360107,0.0311279,0.0787354,0.0421143,0.0311279,0.0241089,-0.012207,0.0167847,-3.19122
60,4,0.0134277,0.0158691,-0.0106812,0.0396729,0.0219727,0.00946045,0.0643921,0.0448608,0.0195312,0.017395,-0.00823975,0.0231934,-3.1665
61,0,0.0186157,0.0479126,0.0253296,0.0457764,0.0109863,0.0183105,0.0637817,0.0228882,0.0210571,0.0143433,0.00427246,0.0195312,-3.08441
61,1,0.0131226,0.0708008,-0.0183105,0.0418091,0.0244141,-0.0112915,0.0653076,0.0222778,0.0421143,-0.00244141,-0.00732422,0.0189209,-3.05115
61,2,0.0250244,0.0326538,0.027771,0.0460815,0.0192261,0.00549316,0.0552368,0.0500488,0.0460815,0.0137329,-0.0216675,0.0195312,-2.9303
61,3,0.00976562,0.00457764,0.0289917,0.0494385,0.0274658,-0.0292969,0.0588989,0.0219727,0.0494385,0.0311279,-0.0164795,0.00579834,-2.87811
61,4,0.00762939,-0.00946045,0.0418091,0.0338745,0.0238037,-0.039978,0.0274658,0.0204468,0.0524902,0.0262451,-0.0140381,0.0860596,-2.79236
62,0,-0.0119019,-0.00457764,0.0405884,-0.00976562,0.0201416,-0.0317383,0.0454712,0.0411987,0.0457764,-0.00396729,-0.0109863,-0.00732422,-2.73468
62,1,0.0125122,-0.0119019,0.00915527,0.0314331,0.0314331,-0.0262451,0.0418091,-0.0170898,0.0387573,0.00396729,0.00701904,0.0250244,-2.67853
62,2,-0.0527954,-0.03479,0.0177002,0.0686646,0.0296021,-0.0149536,0.0491333,0.0341797,0.0460815,-0.0195312,-0.0546265,0.0109863,-2.61963
62,3,0.0234985,-0.0167847,0.0222778,0.0357056,0.0167847,-0.000915527,0.0445557,0.0234985,0.0509644,-0.00640869,-0.0152588,0.0222778,-2.55157
62,4,0.0128174,0.00488281,0.0088501,0.0216675,0.0164795,0.0283813,0.0463867,0.0250244,0.0534058,-0.000305176,-0.0238037,-0.0421143,-2.48108
63,0,0.00823975,0.057373,0.0106812,0.0402832,0.0134277,0.0610352,0.0262451,0.0311279,0.0497437,0.0112915,-0.0128174,0.0164795,1.02386
63,1,0.0247192,0.0924683,0.00549316,0.0314331,0.00701904,0.127258,0.0271606,0.0366211,0.057373,0.00915527,-0.00549316,0.0186157,1.17828
63,2,0.0112915,0.071106,0.00305176,0.0585938,0.0125122,0.0509644,0.0216675,0.0228882,0.0778198,0.000610352,-0.0131226,-0.0436401,1.41998
63,3,0.0543213,0.0549316,0.0125122,0.0610352,0.00610352,0.0683594,0.0506592,0.0222778,0.0201416,0.0012207,-0.022583,0.00213623,1.49567
63,4,-0.0314331,0.043335,-0.00213623,0.0335693,0.0134277,0.0415039,0.0238037,0.0234985,0.0323486,0.0177002,-0.0299072,0.0363159,1.57623
64,0,0.045166,0.0137329,0.0192261,0.0576782,0.00976562,0.020752,-0.0204468,0.0463867,0.0140381,0.0128174,-0.0323486,0.0231934,1.54724
64,1,0.015564,0.0183105,0.0140381,0.0192261,0.00915527,0.00305176,0.0274658,0.0314331,0.0195312,0.0183105,-0.038147,0.0170898,1.28021
64,2,0.00701904,0.0183105,0.0360107,0.0439453,0.0177002,-0.0546265,0.0357056,0.0231934,0.0143433,0.0186157,-0.0314331,0.00915527,1.00586
64,3,0.0161743,0.0485229,0.010376,0.0262451,0.00915527,-0.00823975,0.0213623,0.0134277,0.012207,0.020752,-0.0305176,-0.039978,0.460205
64,4,-0.0143433,0.00946045,0.00854492,0.0296021,0.0149536,0.00457764,0.0241089,0.0369263,0.015564,0.00335693,-0.0296021,0.0177002,-1.11877
65,0,0.0186157,0.0747681,0.0332642,0.0259399,0.0939941,0.0427246,0.0204468,0.0643921,0.00610352,0.0189209,-0.0384521,0.0238037,-1.61804
65,1,0.017395,0.012207,0.0119019,0.0415039,0.0372314,0.0265503,0.0268555,0.0183105,-0.0177002,0.0189209,-0.0262451,0.0210571,-1.40686
65,2,0.0134277,0.0128174,0.00549316,0.0186157,0.00579834,0.0137329,0.010376,0.0231934,-0.0140381,0.00823975,-0.0308228,0.0115967,-0.782776
65,3,0.0152588,0.000610352,0.00183105,0.0280762,0.0195312,0.0860596,0.0360107,0.0244141,-0.0650024,0.00518799,-0.0592041,0.0662231,-0.85144
65,4,0.0244141,-0.00701904,0.0308228,0.0390625,0.0286865,0.00701904,0.0262451,0.0454712,-0.00701904,0.0109863,-0.057373,0.088501,-0.460815
66,0,0.012207,-0.0088501,0.0140381,0.0543213,-0.00549316,0.0665283,0.0198364,-0.00671387,0.000915527,0.0140381,-0.0454712,0.0161743,0.0497437
66,1,0.0164795,0.00640869,0.00366211,0.0384521,-0.00366211,0.0732422,-0.0369263,0.0326538,-0.00457764,0.0112915,-0.0408936,0.0177002,0.204773
66,2,0.0164795,0.00152588,0.0198364,0.0305176,0.00335693,0.0769043,0.0192261,0.00671387,0.00274658,0.0164795,-0.0543213,0.0241089,0.17334
66,3,0.0390625,0.0088501,0.0146484,0.0250244,0.00152588,0.0991821,0.0262451,0.0192261,0.00976562,0.00579834,-0.0268555,0.0198364,-0.0588989
66,4,0.0253296,0.00976562,0.0152588,0.03479,-0.0408936,0.0830078,0.0112915,0.0866699,0.015564,0.0140381,-0.0314331,0.015564,0.0152588
67,0,0.0134277,-0.0128174,0.0338745,0.0506592,0.0292969,0.0222778,0.0241089,0.0335693,-0.00183105,0.0210571,-0.0253296,0.0299072,-0.404663
67,1,0.0311279,0.00335693,0.00488281,0.0469971,-0.00305176,0.0479126,0.0231934,0.032959,0.0198364,0.020752,-0.0170898,0.0250244,-0.168457
67,2,0.00915527,-0.00976562,0.0305176,0.0518799,0.00915527,0.0308228,0.0369263,0.0137329,0.0177002,0.00488281,-0.0112915,0.027771,-0.125122
67,3,0.0250244,-0.0457764,0.0177002,0.055542,0.032959,0.0521851,0.0198364,0.027771,0.027771,0.0167847,-0.00732422,0.00610352,0.0125122
67,4,0.0314331,-0.000915527,0.0192261,0.0610352,-0.0146484,0.0802612,0.0134277,-0.000305176,0.0274658,0.065918,0.017395,0.0109863,0.0723267
68,0,0.0338745,-0.0109863,0.0238037,0.0512695,-0.00274658,0.06073,0.020752,0.0283813,0.0247192,0.022583,0.00701904,0.0250244,0.147095
68,1,0.0134277,0.00488281,0.00854492,0.0634766,-0.0195312,0.0616455,0.0152588,0.0238037,0.0186157,0.00213623,-0.00183105,0.0183105,0.0860596
68,2,0.0219727,0.00244141,0.0137329,0.0497437,0,0.0521851,0.0183105,0.0100708,0.0561523,0.0231934,-0.0125122,-0.017395,0.212402
68,3,0.0350952,0.00701904,0.0250244,0.032959,-0.00579834,0.00946045,0.0256348,0.0256348,0.0552368,0.0241089,-0.0140381,0.0234985,-0.262451
68,4,0.0201416,0.012207,0.0158691,0.0387573,0.0244141,0.00213623,0.00793457,0.0189209,0.0396729,0.015564,0.00488281,0.0366211,-0.281372
69,0,0.0143433,0.0256348,0.00946045,0.038147,0.0137329,0.0646973,0.022583,0.0286865,0.0811768,0.0100708,-0.020752,0.0332642,-0.127563
69,1,-0.012207,0.0283813,0.0115967,0.0656128,0.0238037,-0.000610352,0.050354,0.0289917,0.0244141,-0.0302124,-0.0460815,0.0280762,0.177002
69,2,0.0167847,0.00457764,-0.00732422,0.0299072,0.00823975,0.00854492,0.00915527,0.0866699,0.0283813,0.0253296,-0.0152588,0.00152588,-0.0402832
69,3,0.0247192,0.0152588,0.012207,0.0167847,-0.000305176,0.0564575,0.0228882,0.0241089,0.00976562,0.0445557,-0.0164795,0.0427246,0.152588
69,4,0.00305176,0.0521851,0.0201416,0.0396729,-0.0485229,0.0585938,0.022583,0.0332642,0.017395,0.0115967,-0.0299072,0.0161743,0.141602
70,0,0.0234985,-0.012207,0.0296021,0.0146484,-0.0430298,0.0549316,0.0115967,-0.0128174,0.0250244,0.0326538,-0.0271606,0.00823975,0.176086
70,1,0.0506592,0.0195312,0.0146484,0.0256348,0.00427246,0.0637817,0.00732422,0.0369263,0.0152588,0.0250244,-0.0445557,0.0146484,0.201721
70,2,0.00427246,0.0320435,0.0140381,0.0219727,0.0140381,0.0744629,0.00976562,0.0283813,0.022583,0.0665283,-0.0131226,0.00823975,0.201721
70,3,0.0335693,0.0149536,0.022583,0.0790405,0.0134277,0.0674438,-0.0369263,0.0292969,0.0280762,0.0299072,-0.0289917,0.0152588,0.273132
70,4,0.0335693,0.0201416,0.0158691,0.0228882,0.00671387,0.0808716,0.022583,0.0308228,0.0213623,0.0421143,-0.0357056,0.0234985,0.338135
71,0,0.0152588,0.0265503,0.0137329,-0.00854492,-0.017395,0.0424194,0.0506592,0.0253296,0.0149536,0.0262451,-0.0531006,0.0146484,0.302429
71,1,0.0265503,0.0299072,0.00427246,0.0387573,0.00152588,0.0140381,0.0164795,-0.0012207,0.00701904,0.0213623,-0.0241089,0.0265503,0.454102
71,2,0.0180054,0.022583,0.010376,0.0378418,-0.00823975,0.00366211,0.0170898,0.020752,0.0354004,0.0366211,-0.0436401,-0.0378418,0.559998
71,3,0.000305176,0.0213623,0.00946045,0.0384521,0.00244141,-0.0088501,0.0125122,0.0271606,0.0561523,0.0341797,-0.0366211,0.0622559,0.590515
71,4,0.0222778,0.0262451,0.0164795,0.0436401,-0.010376,-0.0134277,0.020752,0.0430298,0.0213623,0.0308228,0.00457764,0.0183105,0.570374
72,0,0.0302124,0.0213623,-0.0485229,0.0396729,0.00732422,0.0439453,0.0167847,0.0320435,0.0454712,0.0436401,-0.0323486,0.0201416,0.525513
72,1,0.0262451,-0.0286865,0.0012207,0.0354004,0.00915527,0.0213623,-0.00701904,0.0314331,0.0338745,0.0387573,-0.0466919,0.0256348,0.551453
72,2,0.0195312,-0.0372314,0.0314331,0.0314331,-0.00457764,0.00274658,0.020752,0.0335693,0.0177002,0.0164795,-0.0354004,0.0372314,0.531006
72,3,0.017395,-0.0930786,0.000610352,0.0186157,0.0143433,0.038147,0.0213623,0.0906372,0.0274658,0.010376,-0.039978,0.0195312,0.531006
72,4,0.0408936,-0.0286865,0.00549316,0.0189209,0.0585938,0.0244141,0.00244141,-0.0180054,0.0213623,0.00762939,-0.0372314,0.0115967,0.523071
73,0,0.022583,-0.00427246,0.022583,0.027771,0.0109863,0.0326538,0.0222778,0.00305176,0.0238037,0.0170898,-0.0357056,0.0296021,0.51239
73,1,0.0268555,0.0259399,0.012207,0.0100708,0.00183105,0.020752,0.0183105,0.0161743,0.0268555,0.00976562,-0.032959,0.0164795,0.508423
73,2,0.032959,0.119934,0.0808716,0.032959,0.022583,0.0665283,0.017395,0.0228882,0.0146484,0.0292969,-0.0396729,-0.00732422,0.486755
73,3,-0.00183105,0.110168,0.0219727,-0.0445557,0.015564,0.0262451,0.0283813,0.0265503,0.0137329,0.0125122,-0.0201416,0.0228882,0.476074
73,4,0.0256348,0.132141,0.00946045,0.00335693,0.0241089,0.032959,0.0186157,0.0296021,0.0180054,0.0314331,-0.0341797,0.00305176,0.474243
74,0,0.0204468,0.0515747,0.0192261,0.012207,0.00854492,0.0146484,0.0286865,0.022583,0.0299072,0.00732422,-0.0738525,0.0335693,0.472107
74,1,0.067749,0.0283813,0.022583,0.0134277,-0.000305176,0.0210571,0.0115967,0.010376,0.0354004,0.0128174,-0.0531006,0.0119019,0.491333
74,2,0.038147,0.0228882,0.0140381,0.00183105,0.020752,0.0170898,0.00701904,0.0296021,0.0302124,0.0234985,-0.0469971,0.0271606,0.493774
74,3,0.0180054,0.00854492,0.0772095,-0.00457764,0.0180054,-0.0219727,0.0192261,0.0302124,0.0427246,0.0372314,-0.0390625,0.0231934,0.470276
74,4,0.0357056,0.00274658,0.0119019,-0.0012207,0.00396729,-0.000610352,0.0152588,0.0180054,0.0408936,0.0402832,-0.0274658,0.0289917,0.526123
75,0,0.0332642,0.00488281,0.0201416,-0.00366211,0.0195312,-0.017395,-0.00183105,0.032959,0.0378418,0.0372314,-0.0283813,0.0289917,0.480652
75,1,0.0405884,0.00915527,0.0134277,-0.012207,0.0137329,-0.0140381,0.0271606,0.0308228,0.0268555,0.0335693,-0.0314331,0.0131226,0.4599
75,2,-0.0106812,0.0210571,0.0149536,0.0213623,-0.0128174,-0.022583,0.0143433,0.0198364,0.039978,0.0317383,-0.015564,0.0302124,0.463562
75,3,0.0323486,0.022583,0.0167847,0.00640869,-0.0531006,-0.00213623,0.0259399,0.0299072,0.0390625,0.0476074,-0.0344849,0.0109863,0.444031
75,4,0.0280762,0.0234985,0.0317383,-0.00335693,0.0683594,-0.00152588,0.0146484,-0.0256348,0.0234985,0.0244141,-0.0378418,0.0238037,0.445557
76,0,0.0656128,0.00457764,0.0180054,-0.00213623,0.0180054,-0.00274658,0.0302124,0.0204468,0.0454712,0.000610352,-0.0582886,0.0332642,0.439758
76,1,0.0387573,0.015564,0.0170898,-0.0201416,0.012207,0.0253296,0.0204468,0.0262451,0.0283813,0.0378418,-0.0482178,0.0314331,0.394897
76,2,0.0335693,0.0134277,0.0262451,-0.0146484,0.0186157,0.0201416,0.0180054,0.0164795,0.0350952,0.0308228,-0.0430298,0.0128174,0.386353
76,3,0.0320435,0.0280762,0.027771,-0.0149536,0.0811768,0.0491333,0.00671387,0.0610352,0.0259399,0.0320435,-0.0384521,0.032959,0.412598
76,4,0.0360107,0.00915527,-0.00610352,-0.0476074,0.027771,0.0588989,-0.0210571,0.0234985,0.0360107,0.0534058,-0.027771,0.0213623,0.449219
77,0,-0.0213623,0.0204468,0.0143433,-0.0152588,-0.00335693,0.0964355,0.0189209,0.0131226,0.0286865,0.0494385,-0.0509644,0.0219727,0.487671
77,1,0.055542,0.0323486,0.0189209,0.0201416,0.00976562,0.0842285,-0.00457764,0.0216675,0.0231934,0.0457764,-0.050354,0.0302124,0.472107
77,2,0.0271606,0.0134277,0.0283813,-0.000610352,0.0299072,0.0634766,0.0216675,0.0369263,0.00183105,0.0405884,-0.072937,0.017395,0.472107
77,3,0.0238037,0.0427246,0.0213623,0.00793457,0.0253296,0.0457764,0.0204468,-0.0357056,0.0265503,0.0366211,-0.0473022,0.0195312,0.299377
77,4,0.0244141,0.0299072,0.00335693,0.00579834,0.00549316,0.0424194,0.0119019,0.0286865,0.0274658,0.0341797,-0.0454712,0.0219727,0.377808
78,0,0.0314331,0.00701904,0.0357056,0,-0.015564,0.0518799,0.0177002,0.0140381,0.0189209,0.0445557,-0.0125122,0.0170898,0.537415
78,1,0.0491333,0.00579834,0.0189209,-0.0469971,0.0332642,0.0524902,0.0460815,0.020752,0.0213623,0.0665283,-0.0164795,0.0274658,0.462341
78,2,0.0201416,0.0192261,-0.027771,-0.010376,0.0106812,0.0115967,0.0241089,0.00305176,-0.0265503,0.0357056,-0.0231934,-0.00732422,0.522461
78,3,0.0296021,0.0210571,0.0286865,0.00274658,0.00946045,0.107117,0.0189209,0.0170898,0.0732422,0.0390625,-0.0177002,0.00488281,0.868225
78,4,0.0384521,0.0131226,0.0115967,0.0106812,0.0143433,0.0689697,0.0167847,0.00976562,-0.0341797,0.055542,0.00579834,0.0146484,1.16028
79,0,0.0357056,0.0256348,0.0106812,0.00396729,-0.00183105,0.111084,0.00946045,0.0115967,-0.022583,0.0244141,0.00823975,0.0271606,1.09161
79,1,0.0244141,0.0320435,0.027771,-0.0418091,0.0369263,0.0579834,0.00274658,0.0106812,0.0152588,0.104065,0.0146484,0.0265503,1.06934
79,2,0.0405884,0.0109863,0.0167847,0.015564,0.0106812,0.0631714,0.00762939,0.0149536,0.0134277,0.0283813,0,0.0363159,0.982666
79,3,0.0411987,0.0271606,0.0326538,-0.000305176,0.0109863,0.0134277,-0.00854492,0.0189209,0.00305176,0.0167847,0.0115967,0.0286865,1.15601
79,4,0.0344849,0.0112915,0.0241089,0.00213623,0.0140381,0.0491333,0.0305176,0.0216675,0.0137329,0.0308228,-0.0222778,0.0283813,1.1203
80,0,-0.0216675,0.00305176,0.0268555,0.0341797,0.0219727,0.0445557,0.0299072,0.0198364,0.0180054,0.0393677,-0.0598145,0.0183105,1.09406
80,1,0.0195312,0.0180054,0.0247192,0.00640869,0.00427246,0.0311279,0.0137329,0.0137329,0.00213623,0.0326538,-0.0177002,0.00457764,1.07269
80,2,0.0497437,-0.0292969,0.0152588,0.00366211,0.0689697,0.0177002,0.010376,0.0186157,0.00488281,0.0344849,-0.0247192,0.0262451,1.05469
80,3,0.0274658,0.0134277,0.0234985,-0.0125122,0.0244141,0.0967407,0.00671387,0.0112915,-0.00183105,0.027771,-0.020752,0.0299072,1.03607
80,4,-0.0296021,0.0161743,0.0265503,0.00610352,0.0210571,0.00396729,0.0161743,-0.000915527,0.00854492,0.0378418,-0.0424194,0.0335693,1.0083
81,0,0.0372314,-0.00152588,-0.0134277,-0.0216675,0.0201416,-0.0708008,0.0119019,0.017395,0.00762939,0.0424194,-0.0402832,0.0756836,0.985718
81,1,0.0363159,0.0183105,0.0183105,-0.0100708,0.0216675,-0.0189209,0.0234985,0.0170898,0.0283813,-0.0238037,-0.0338745,0.0418091,1.72729
81,2,0.0454712,0.0430298,0.0186157,-0.067749,0.0216675,-0.0320435,0.0125122,0.00732422,0.0314331,0.0369263,-0.0335693,0.0393677,1.60522
81,3,0.0372314,0.0311279,0.0259399,0.0512695,0.027771,-0.0299072,0.0326538,0.0204468,0.0283813,0.0640869,-0.0494385,0.0302124,0.110168
81,4,0.0753784,0.0125122,0.0192261,0.0268555,0.0234985,-0.0131226,0.0408936,0.0167847,0.0167847,0.00915527,-0.0463867,0.0454712,-0.601807
82,0,0.03479,0.0170898,0.0253296,-0.0128174,0.0112915,0.0708008,0.020752,0.0256348,0.062561,0.0088501,-0.0402832,0.0259399,0.15625
82,1,0.0296021,-0.00701904,0.0216675,-0.0134277,0.0326538,0.0158691,0.00823975,0.0827026,0.0283813,0.00610352,-0.0479126,0.0250244,-0.150757
82,2,0.0344849,-0.0152588,0.0259399,-0.0198364,0.0161743,0.0424194,0.0234985,0.00701904,0.0271606,0.0271606,-0.0524902,0.0152588,-1.08124
82,3,0.0289917,0.0137329,0.0405884,-0.015564,0.03479,0.0540161,0.0115967,0.0527954,0.0186157,0.0375366,-0.0469971,0.0506592,-0.273438
82,4,0.0210571,-0.050354,0.0195312,-0.0152588,0.0314331,0.0436401,0.0256348,0.0238037,0.0198364,0.0387573,-0.0527954,0.0317383,0.418396
83,0,0.0262451,0.0479126,0.0125122,-0.0109863,0.0204468,0.0671387,0.0115967,0.0167847,0.0186157,0.0323486,-0.0466919,0.0588989,0.618591
83,1,0.0402832,0.0646973,0.0332642,0.00183105,0.0289917,0.0576782,0.00518799,0.0161743,0.0213623,0.0180054,-0.0448608,0.0286865,0.699768
83,2,0.0286865,0.0262451,0.0476074,-0.00366211,0.00946045,0.0891113,0.0213623,0.0332642,0.062561,0.0271606,-0.0375366,0.0775146,0.927734
83,3,0.0308228,0.0637817,0.0259399,-0.0140381,0.071106,0.0311279,0.0271606,-0.00183105,0.022583,0.0259399,-0.0369263,0.0332642,1.06293
83,4,0.0335693,0.0717163,0.0564575,0.0265503,0.0195312,0.0250244,0.0177002,0.00549316,0.0222778,0.0112915,-0.0500488,0.0296021,1.16241
84,0,0.0378418,0.057373,0.0308228,-0.0195312,0.0192261,0.0183105,0.00823975,0.010376,0.00732422,0.027771,-0.0280762,0.0598145,1.16608
84,1,0.0201416,0.0396729,0.0317383,0.0326538,0.0247192,0.0186157,0.0265503,0.032959,0.0341797,0.00732422,-0.0335693,0.0280762,1.05377
84,2,0.0311279,0.0219727,0.0238037,0.00793457,-0.0338745,0.0106812,0.017395,0.0924683,0.0302124,0.0283813,-0.0378418,0.0323486,0.880737
84,3,0.0430298,0.0378418,0.0344849,-0.00396729,0.0140381,0.0231934,0.0119019,-0.0247192,0.0289917,0.0378418,-0.0177002,0.0186157,0.780029
84,4,0.0595093,0.022583,0.0112915,-0.00427246,0.0161743,0.00488281,0.0195312,0.00823975,0.0192261,0.0280762,-0.0308228,0.0448608,0.724182
85,0,0.0280762,0.0244141,0.0180054,-0.0201416,0.0241089,0.0131226,0.00793457,0.0219727,0.0125122,0.0335693,-0.0314331,0.0250244,0.651245
85,1,0.0286865,0.0531006,0.0204468,0.000610352,0.0112915,0.00488281,0.0158691,0.00305176,0.0234985,0.0302124,-0.0177002,0.0384521,0.592346
85,2,0.0289917,0.0860596,0.038147,-0.000610352,0.0198364,-0.0344849,0.0302124,0.0125122,0.0314331,0.0283813,-0.0228882,0.0332642,0.596313
85,3,0.0302124,0.0674438,0.0234985,0.00366211,0.0231934,-0.0592041,0.0177002,0.0195312,0.0241089,0.0161743,-0.0204468,0.0222778,0.251465
85,4,0.039978,0.0341797,0.0357056,-0.00915527,0.00640869,-0.0683594,0.0149536,-0.00152588,0.0308228,0.00762939,-0.00701904,0.0271606,0.402222
86,0,0.0125122,-0.00183105,-0.012207,-0.022583,0.0262451,-0.100708,0.0161743,0.0195312,0.00671387,0.0167847,-0.0360107,-0.0216675,0.446777
86,1,0.0186157,0.0146484,0.0204468,-0.00274658,0.0241089,-0.0363159,0.0140381,0.0274658,0.0354004,0.0390625,-0.0250244,0.032959,0.409546
86,2,0.0708008,-0.0115967,0.0323486,-0.0140381,0.0286865,-0.0546265,0.0231934,0.0183105,0.03479,0.0186157,-0.00762939,0.03479,0.404968
86,3,0.0234985,0.0112915,0.0280762,-0.0204468,0.0292969,-0.0363159,0.0244141,0.00976562,0.0811768,0.0387573,-0.0265503,0.0827026,0.122375
86,4,0.0274658,0.0216675,0.0396729,-0.010376,0.0210571,-0.0170898,0.0149536,-0.00305176,0.0369263,0.0177002,-0.0250244,0.0469971,0.412598
87,0,0.0354004,0.000610352,0.0360107,0.00946045,0.0259399,0.0109863,0.0149536,0.0231934,0.0317383,0.0308228,-0.0100708,0.0378418,0.577393
87,1,0.0357056,0.00518799,0.0421143,-0.00671387,0.0616455,0.0854492,0.0183105,0.0259399,0.0335693,0.0216675,-0.00427246,0.0253296,0.640869
87,2,0.0415039,0.0390625,0.0335693,0.00732422,0.0769043,0.155945,0.0186157,-0.0134277,0.0177002,0.0167847,-0.00183105,0.0369263,0.623474
87,3,0.0448608,0.065918,0.0454712,-0.00701904,0.0256348,0.1474,0.022583,0.0167847,0.00518799,0.0238037,-0.0234985,0.0262451,0.575256
87,4,0.0665283,0.0921631,0.0308228,0.0271606,0.0149536,0.0601196,0.0177002,0.0189209,0.0115967,0.000305176,-0.0619507,0.0402832,0.569458
88,0,0.0350952,0.0769043,-0.00488281,0.0405884,-0.00701904,-0.0109863,0.0357056,0.0408936,0.027771,0.0283813,-0.0283813,0.03479,0.472717
88,1,0.0317383,0.0579834,0.0204468,0.0335693,0.0167847,0.0311279,-0.0292969,0.0219727,0.0210571,0.0494385,-0.0393677,0.0357056,0.295715
88,2,0.0350952,0.0311279,0.0241089,0.0198364,0.00518799,0.0299072,0.00946045,0.0256348,-0.0320435,0.0198364,-0.0244141,0.0842285,-3.16742
88,3,0.00518799,0.012207,0.0411987,0.0314331,0.0115967,0.0500488,0.0198364,0.0408936,0.0152588,0.00640869,0.000610352,0.0256348,-3.18298
88,4,0.0836182,0.00305176,0.0262451,0.0152588,0.012207,0.0341797,-0.000610352,0.00213623,0.0219727,0.0128174,-0.0280762,0.0250244,-3.16437
89,0,0.0177002,-0.0390625,0.00549316,0.0308228,0.0213623,0.0183105,0.0164795,0.0140381,-0.00518799,0.0192261,-0.0253296,0.0512695,-2.06757
89,1,0.0476074,0.010376,0.0787354,0.0378418,0.0210571,0.0216675,0.0189209,0.022583,-0.0509644,0.0158691,-0.0308228,0.0482178,-1.48346
89,2,0.032959,0.00549316,0.0375366,0.022583,0.0314331,0.0320435,0.0192261,0.0158691,-0.00183105,0.0189209,-0.0289917,0.0189209,-1.21918
89,3,0.0250244,0.0115967,-0.0265503,0.015564,0.0314331,0.0466919,0.0238037,0.0292969,0.00854492,0.0186157,-0.0314331,0.0457764,-1.44714
89,4,0.0372314,0.0253296,0.0216675,0.0152588,0.0393677,0.00610352,0.0222778,0.0183105,0.00366211,0.0149536,-0.0402832,0.032959,-1.72272
90,0,0.0146484,0.0482178,0.00854492,0.00366211,0.0222778,-0.0372314,0.0192261,0.0332642,-0.0311279,0.0152588,-0.038147,0.0527954,-2.21893
90,1,0.0259399,0.00793457,0.010376,0.000305176,0.0115967,-0.0140381,-0.0466919,0.00793457,-0.00671387,0.0137329,-0.0338745,0.0296021,-1.49292
90,2,0.0134277,0.0177002,0.0219727,0.0195312,0.010376,-0.00732422,-0.118713,0.0650024,-0.0125122,0.0289917,-0.0274658,0.0219727,-1.06476
90,3,-0.0201416,0.0131226,0.0378418,0.00671387,0.0268555,-0.0140381,-1.0614,0.0201416,0.00976562,0.0198364,-0.0308228,0.0143433,-0.901184
90,4,0.0289917,-0.0415039,0.0253296,0.0152588,0.0222778,-0.0256348,-0.386963,0.0158691,0.0152588,0.020752,-0.0238037,0.0289917,-2.0166
91,0,0.0296021,0.00457764,0.0259399,0.010376,0.0268555,-0.0161743,0.00976562,0.0134277,0.0222778,0.0350952,-0.0268555,0.0375366,-2.2403
91,1,0.0265503,0.00183105,0.0286865,-0.00976562,0.0244141,-0.015564,0.0628662,0.0305176,0.0140381,0.0216675,-0.0259399,0.0323486,-1.3501
91,2,0.027771,-0.00335693,0.0247192,0.0192261,0.0354004,0.00610352,-2.70386,0.0479126,0.00976562,0.00427246,0.00915527,0.0323486,-1.18439
91,3,0.0247192,0.0311279,0.0463867,0.0213623,0.0350952,-0.00427246,0.186462,0.00732422,0.0262451,0.0134277,0.00732422,0.0100708,-0.637512
91,4,0.0134277,0.0418091,0.0308228,0.0302124,0.0396729,0.00915527,0.240784,0.00854492,0.0158691,0.0265503,-0.0256348,0.0332642,-0.69519
92,0,0.0421143,0.0918579,0.0408936,0.0183105,0.0286865,0.0158691,-0.639343,0.00457764,0.020752,-0.0390625,-0.0152588,0.0354004,-0.627441
92,1,0.022583,0.0457764,0.032959,0.0280762,0.0332642,0.010376,-0.235291,0.0195312,0.072937,0.00335693,-0.0137329,0.0411987,-0.85968
92,2,0.0250244,-0.00823975,0.0463867,0.0405884,0.0253296,0.0302124,0.522156,0.010376,0.0149536,0.0177002,-0.0216675,0.0259399,-0.933533
92,3,0.0234985,-0.00671387,0.0268555,0.0213623,0.0311279,0.000305176,0.529175,-0.0430298,0.0161743,0.0259399,-0.0119019,0.0366211,-1.0849
92,4,0.0320435,-0.0323486,0.0436401,0.00854492,0.0219727,0.00946045,0.49408,0.0396729,0.00549316,0.0378418,-0.0314331,0.0439453,-0.888062
93,0,0.0286865,-0.0463867,0.0311279,0.0836182,0.0500488,-0.000610352,0.395508,0.0140381,0.0228882,0.0250244,-0.0393677,0.0299072,-0.801086
93,1,0.0299072,-0.0363159,0.0299072,0.00671387,0.0384521,-0.0177002,0.443726,-0.020752,0.0183105,0.0302124,0.000915527,0.0222778,-0.830688
93,2,0.027771,-0.0143433,0.0271606,0.0326538,0.0299072,-0.0143433,0.400696,0.0134277,0.0405884,0.0149536,-0.0247192,0.00335693,-0.744019
93,3,-0.0125122,0.000305176,0.0375366,-0.0100708,0.0393677,-0.0375366,0.425415,0.00732422,0.0222778,-0.00488281,-0.0228882,0.0164795,-0.431213
93,4,0.0231934,0.0650024,0.0369263,0.0335693,0.0305176,-0.0283813,0.354614,0.0115967,0.0146484,-0.00244141,-0.0256348,-0.0274658,-0.246582
94,0,0.0283813,0.116882,0.0985718,0.0317383,0.0323486,-0.0088501,0.310669,0.0338745,0.0228882,0.0222778,-0.0198364,0.0415039,-0.201416
94,1,0.0119019,0.0732422,0.0250244,0.0256348,0.0372314,0.00793457,0.292358,0.0115967,0.0170898,0.0280762,-0.0204468,0.0259399,-0.273438
94,2,0.0231934,0.0894165,0.0390625,0.0418091,0.0189209,0.0167847,0.243225,0.000610352,0.0115967,0.0415039,-0.027771,0.0234985,-0.330811
94,3,0.0396729,0.0714111,0.0421143,0.0268555,0.0421143,0.027771,0.24292,0.0283813,0.0183105,0.0177002,0.017395,0.0253296,-0.313721
94,4,0.0204468,0.0274658,0.0201416,0.093689,0.0512695,0.0811768,0.245667,0.0256348,0.00213623,0.0109863,-0.0524902,0.0192261,-0.25116
95,0,0.0219727,0.0338745,0.0424194,0.0491333,0.0430298,0.0897217,0.203247,-0.00915527,0.00640869,0.00946045,-0.0384521,0.0180054,-0.202026
95,1,0.0183105,0.0137329,0.0259399,0.0494385,0.0424194,0.0750732,0.186157,0.0164795,-0.0128174,0.00610352,-0.0317383,0.0222778,-0.133972
95,2,0.0216675,0.0268555,0.0146484,0.0396729,0.0259399,0.078125,0.169067,0.0180054,-0.0137329,-0.0143433,-0.0387573,0.017395,-0.116272
95,3,0.0274658,0.0259399,0.0259399,0.0665283,0.0161743,0.050354,0.130615,-0.0170898,-0.0112915,0.012207,-0.038147,0.03479,-0.0195312
95,4,0.0247192,0.0289917,0.0430298,0.108948,0.0341797,0.00366211,0.137634,0.0164795,-0.00244141,0.00457764,-0.0384521,0.0268555,0.0256348
96,0,0.032959,0.0509644,0.0210571,0.0460815,0.0579834,0.0158691,0.110168,0.0317383,-0.00579834,0.00701904,-0.050354,0.0500488,0.0909424
96,1,0.015564,0.0524902,-0.00610352,0.0445557,0.0180054,0.00701904,0.0979614,0.00976562,0.0393677,0.00976562,-0.0540161,0.027771,0.123596
96,2,0.0128174,0.0363159,0.0515747,0.0631714,0.0320435,0.0152588,0.0927734,0.0323486,0.00793457,0.0100708,-0.0387573,0.0204468,0.183716
96,3,0.0247192,0.0363159,0.0299072,0.043335,0.0448608,0.078125,0.090332,0.0167847,0.00457764,0.00335693,-0.0265503,0.0427246,0.201721
96,4,0.00457764,-0.0186157,0.0259399,0.0524902,0.0271606,0.0372314,0.0772095,0.00366211,-0.00427246,0.0164795,-0.0457764,0.0134277,0.233765
97,0,0.00976562,-0.0164795,0.00549316,0.055542,0.0274658,0.0827026,0.0817871,0.0259399,-0.050354,0.00305176,-0.0170898,0.0283813,0.265808
97,1,0.0152588,-0.00213623,0.0146484,0.0497437,0.0375366,0.0448608,0.0793457,0.0161743,0.00305176,0.0244141,-0.0253296,0.022583,0.310364
97,2,0.0305176,0.00854492,0.0195312,0.0473022,0.022583,0.022583,0.0543213,0.0274658,0.0128174,0.00396729,-0.000610352,0.0238037,0.332031
97,3,0.0216675,0.00274658,0.0231934,0.055542,0.0415039,0.0372314,0.0439453,0.0259399,0.0241089,0.0222778,-0.0259399,0.0222778,0.329895
97,4,0.0256348,0.00701904,0.0668335,0.0750732,0.0247192,-0.0326538,0.045166,0.00640869,0.0515747,0.00366211,-0.00549316,0.0186157,0.328369
98,0,0.0289917,0.0875854,0.0289917,0.0576782,-0.0088501,0.0146484,0.038147,0.0195312,0.0109863,0.00671387,-0.0302124,0.0131226,0.35675
98,1,0.0143433,0.0177002,0.0375366,0.072937,0.0344849,-0.0338745,0.0473022,0.0292969,0.000305176,0.00640869,-0.00610352,0.0274658,0.37262
98,2,0.0250244,0.0268555,0.0177002,0.0439453,0.0234985,0.00549316,0.0375366,0.0341797,0.0253296,0.0125122,-0.0164795,0.00549316,0.36499
98,3,0.0216675,0.022583,0.0170898,0.0692749,0.0405884,0.00946045,0.0186157,-0.00427246,0.0286865,-0.0146484,-0.0161743,0.0228882,0.366211
98,4,0.015564,0.0210571,0.0332642,0.0152588,0.0567627,0.0177002,0.0958252,0.00976562,0.0244141,-0.00427246,-0.00579834,0.032959,0.383606
99,0,0.0201416,0.0161743,0.00854492,0.0466919,0.0366211,0.0332642,0.0756836,0.0305176,0.0421143,0.0241089,-0.010376,0.0204468,0.383606
99,1,-0.0222778,0.0378418,0.0216675,-0.00274658,0.0387573,0.0708008,0.0244141,0.0234985,0.0302124,-0.00427246,-0.000915527,0.022583,0.39856
99,2,0.0109863,0.0286865,0.0253296,0.0588989,0.050354,0.0582886,0.0280762,0.0372314,0.0268555,-0.00915527,-0.012207,0.022583,0.391846
99,3,0.0201416,0.0302124,-0.0534058,0.0552368,0.0338745,-0.00488281,0.015564,0.0283813,0.0518799,0.00610352,-0.0231934,-0.00946045,0.393982
99,4,0.00946045,0.0408936,0.0238037,0.0424194,0.0369263,0.0335693,0.010376,0.0375366,0.0405884,0.00579834,-0.0137329,0.0192261,0.397949
100,0,0.0241089,0.0366211,0.027771,0.0720215,0.0198364,0.0537109,0.0241089,0.0228882,0.0238037,0.00518799,-0.0158691,0.0149536,0.375977
100,1,0.0402832,0.017395,0.0527954,0.0558472,0.0234985,0.0543213,0.00701904,0.0289917,0.0390625,0.0134277,-0.0274658,0.0271606,0.391235
100,2,0.0201416,0.0106812,0.0302124,0.0588989,0.0448608,0.039978,0.00335693,0.0140381,0.0280762,0.00701904,-0.00274658,0.00976562,0.380249
100,3,0.0219727,0.0320435,0.032959,0.0564575,-0.0128174,0.0537109,0.00915527,0.0305176,0.0189209,0.00427246,-0.0131226,0.0128174,0.376282
100,4,0.0201416,-0.000305176,-0.00183105,0.0512695,0.0341797,0.0549316,0.0180054,0.0268555,0.027771,0.0140381,-0.0183105,-0.0256348,0.387268
101,0,0.000610352,-0.00366211,0.0378418,0.0500488,0.0311279,0.0247192,0.017395,0.0268555,0.0302124,0.00427246,-0.00610352,0.00610352,0.368652
101,1,0.0183105,0.0302124,0.0292969,0.0457764,0.0238037,0.0158691,0.00396729,0.0314331,0.0292969,0.00579834,-0.0112915,0.0149536,0.37323
101,2,0.020752,-0.0286865,-0.03479,0.0549316,0.0323486,-0.0109863,0.0137329,0.0283813,0.0482178,0.00335693,-0.0112915,0.0146484,0.401917
101,3,-0.0268555,-0.010376,0.0253296,0.0335693,0.0341797,0.00183105,-0.00366211,0.0167847,0.0137329,0.00762939,-0.0134277,0.0256348,0.34729
101,4,0.0793457,-0.00488281,0.0320435,-0.00762939,0.0244141,0.0088501,0.0219727,0.0186157,0.0201416,0.0338745,-0.00823975,0.0134277,0.364075
102,0,0.0195312,0.0198364,0.0308228,0.0360107,0.0296021,-0.0140381,0.015564,0.0317383,-0.00183105,0.0164795,-0.00640869,0.0262451,0.359192
102,1,0.0140381,0.0418091,0.0262451,0.0518799,0.0442505,0.00213623,0.0198364,0.0616455,0.0302124,0.022583,-0.0497437,0.0213623,0.351562
102,2,0.0247192,0.0817871,0.00671387,0.0357056,0.0216675,0.0317383,-0.00305176,0.0317383,-0.00701904,0.0177002,-0.0228882,0.038147,0.403748
102,3,-0.0344849,0.0686646,0.0192261,-0.0201416,0.0390625,0.0149536,0.012207,0.0201416,0.0149536,0.0296021,-0.0100708,0.0112915,0.344238
102,4,0.0112915,0.0540161,0.0790405,0.0405884,0.0375366,0.0668335,0.0149536,0.0460815,0.0253296,0.0115967,-0.0427246,-0.0439453,0.328979
103,0,0.0335693,0.0445557,0.0308228,0.0494385,0.0161743,0.0256348,-0.00671387,0.0341797,0.0158691,0.0244141,-0.0192261,0.0109863,0.320129
103,1,0.0119019,0.0421143,0.0238037,0.0448608,0.0222778,0.0335693,0.00610352,0.0183105,0.0439453,0.0753784,-0.00854492,0.0170898,0.341492
103,2,0.0219727,0.0354004,0.0393677,0.038147,0.015564,0.0128174,-0.00549316,0.0140381,0.0244141,-0.0372314,-0.0100708,0.0100708,0.392456
103,3,0.0308228,0.0354004,0.0198364,0.050354,0.0372314,0.0463867,0.0213623,0.0195312,0.0231934,0.0466919,-0.0323486,0.000915527,0.553284
103,4,0.0201416,0.0521851,0.00274658,0.0338745,0.0305176,0.0219727,0.0143433,0.0308228,0.0445557,0.017395,-0.0350952,0.0610352,0.286255
104,0,0.012207,0.022583,0.0271606,0.0741577,0.0189209,0.00762939,0.010376,0.0320435,0.0222778,0.00793457,-0.017395,0.00396729,0.250244
104,1,0.0213623,0.0308228,0.0210571,0.038147,0.0323486,0.0582886,-0.00549316,0.0323486,0.0726318,0.0140381,-0.0244141,0.0088501,0.266418
104,2,0.0167847,-0.00915527,0.0231934,0.0256348,-0.0125122,0.00671387,0.0131226,-0.015564,0.0518799,0.0186157,-0.027771,-0.0146484,0.234985
104,3,0.0204468,0.020752,0.0192261,0.0244141,0.0863647,0.0204468,0.00244141,0.0756836,0.0387573,0.0241089,-0.0195312,0.0152588,0.24292
104,4,0.0119019,0.0192261,0.0201416,0.0274658,0.0543213,0.0265503,0.0158691,-0.000610352,0.0445557,0.0238037,-0.0262451,0.0189209,0.252075
105,0,0.0210571,-0.0143433,0.0332642,0.0357056,0.0714111,0.0186157,0.0186157,0.055542,0.0296021,0.0244141,-0.0186157,0.0158691,0.326233
105,1,0.00671387,0.0149536,0.0311279,0.0177002,0.0271606,-0.0119019,0.00366211,0.0192261,-0.0149536,0.0344849,-0.0234985,0.0180054,0.262451
105,2,0.0210571,-0.0088501,0.00213623,0.0234985,0.0259399,0.039978,0.00579834,0.0213623,0.017395,0.0100708,-0.0262451,0.00946045,0.417175
105,3,0.0186157,0.0146484,0.00640869,0.0100708,0.0283813,0.0680542,-0.00518799,0.0354004,0.0350952,0.0170898,-0.027771,0.0338745,0.239563
105,4,0.0402832,0.00793457,0.0262451,-0.00152588,0.0299072,0.0332642,0.0579834,0.0311279,0.0378418,-0.0357056,-0.0314331,0.017395,0.195618
106,0,0.0189209,0.0262451,0.0140381,-0.00335693,0.027771,0.0317383,0.010376,0.0357056,0.022583,0.0219727,-0.0250244,0.0238037,0.17334
106,1,0.0183105,0.0421143,0.0256348,0.0119019,0.0369263,0.00579834,0.0149536,0.0415039,0.0595093,0.0088501,-0.0350952,0.027771,0.193787
106,2,0.00457764,0.00335693,0.00701904,0.0125122,0.0305176,0.0180054,0.0427246,0.020752,0.0552368,0.0149536,-0.0311279,0.0088501,0.774231
106,3,0.0140381,0.027771,0.00640869,0.000610352,0.0485229,0.0128174,0.0183105,0.0115967,0.0543213,0.0149536,-0.0228882,0.0198364,1.2204
106,4,0.00793457,0.000915527,0.0158691,0.0115967,0.0418091,0.0408936,0.00335693,0.0149536,0.0506592,0.00213623,-0.00274658,0.0198364,1.38336
107,0,0.0354004,-0.0146484,-0.00396729,0.0115967,-0.0305176,0.0561523,0.0231934,0.00823975,0.038147,0.0366211,-0.0369263,0.020752,1.44135
107,1,0.0115967,0.00854492,0.0701904,0.0231934,0.0286865,0.0827026,0.00762939,0.0201416,0.0274658,0.0201416,-0.015564,0.0253296,1.4151
107,2,0.0112915,0.0219727,0.0506592,0.00396729,0.0302124,0.0738525,0.0210571,0.0210571,0.0305176,0.0152588,-0.0180054,0.00579834,1.31653
107,3,0.0241089,0.012207,-0.0378418,0.0238037,0.0219727,0.0143433,-0.00152588,0.0259399,0.0247192,0.0244141,-0.0137329,0.0186157,1.36139
107,4,0.0280762,0.017395,0.0305176,0.0299072,0.0228882,0.137634,0.0128174,0.03479,0.0640869,0.0167847,-0.00946045,0.0622559,1.31042
108,0,0.0268555,-0.0424194,0.0183105,0.0320435,-0.0289917,0.0668335,0.0146484,0.0241089,0.0402832,0.0140381,-0.0299072,0.0311279,1.26099
108,1,0.0143433,-0.000915527,0.0234985,0.0149536,0.0259399,0.0518799,-0.0152588,0.0372314,0.0244141,0.0167847,-0.0143433,0.0161743,1.26465
108,2,0.00305176,0.0112915,0,0.0357056,0.0195312,0.0280762,0.0265503,0.0393677,0.022583,0.0250244,-0.010376,0.0302124,1.185
108,3,-0.0204468,0.0158691,0.0088501,0.0143433,0.017395,0.0161743,0.0439453,0.0366211,0.0216675,0.0613403,0.0012207,0.0128174,1.21307
108,4,-0.0332642,0.00152588,0.00732422,0.0259399,0.0305176,0.0320435,0.0296021,0.0439453,0.0183105,0.0308228,0.012207,0.022583,1.15387
109,0,0.0195312,-0.0177002,0.0149536,0.0192261,0.0164795,0.0238037,0.0186157,0.0247192,0.0265503,0.0363159,-0.0152588,0.0476074,1.12976
109,1,0.0393677,-0.0292969,0.00976562,0.0411987,0.0302124,0.0231934,0.0244141,0.0354004,0.0140381,0.0158691,-0.0189209,0.0210571,-1.0965
109,2,0.0210571,-0.050354,0.0210571,0.0268555,-0.0405884,0.0088501,0.0186157,-0.0335693,0.0137329,0.0109863,-0.00335693,0.0109863,-0.179443
109,3,-0.017395,0.00152588,0.020752,0.0692749,0.0421143,0.0247192,0.0424194,0.0167847,0.0271606,0.0393677,-0.0134277,0.0234985,0.186157
109,4,0.0170898,0.0134277,0.0241089,0.0439453,0.0088501,0.0112915,0.00457764,0.0265503,0.0585938,0.0402832,-0.0280762,-0.0222778,0.326233
110,0,0.0253296,-0.00854492,0.0561523,0.0253296,0.0131226,0.0125122,0.0164795,0.0317383,-0.00274658,0.00732422,-0.0213623,0.00183105,0.36377
110,1,0.0125122,-0.0299072,0.0216675,-0.0100708,-0.00549316,0.00305176,0.0106812,0.0183105,0.0259399,0.0112915,-0.0189209,0.00335693,0.38269
110,2,-0.00457764,-0.0088501,0.0262451,0.0384521,0.0228882,0.0289917,-0.00793457,0.0299072,0.00915527,-0.0177002,-0.039978,0.0259399,0.236816
110,3,0.017395,-0.017395,0.0289917,-0.0714111,0.0234985,0.0338745,0.0201416,0.0170898,0.0183105,0.0228882,-0.0210571,0.00305176,0.0860596
110,4,0.0213623,-0.0216675,0.0149536,-0.0131226,0.0479126,0.022583,0.017395,-0.00244141,0.00946045,0.0112915,-0.0210571,0.010376,0.0958252
111,0,0.015564,-0.00549316,0.0286865,-0.0228882,0.0149536,0.0344849,0.0265503,0.0228882,0.00579834,0.0466919,-0.0289917,-0.0335693,0.153503
111,1,0.0186157,0.00732422,0.017395,-0.0317383,0.0140381,0.020752,0.0234985,0.0234985,0.0378418,0.0183105,0.0146484,0.00152588,0.177917
111,2,0.00854492,0.0305176,0.0238037,-0.00946045,0.0234985,0.0244141,-0.0012207,0.015564,0.0137329,0.012207,-0.0308228,0.0476074,0.184326
111,3,0.015564,0.0787354,0.00457764,-0.0308228,0.0213623,0.027771,0.0305176,0.0344849,0.0531006,0.0289917,-0.0265503,0.0177002,0.154724
111,4,0.0360107,0.114136,0.0299072,-0.015564,0.0134277,0.0238037,0.0106812,0.0402832,0.0375366,0.0204468,-0.0283813,0.0109863,0.141602
112,0,0.0119019,0.0448608,0.017395,-0.00549316,-0.0350952,0.0344849,0.010376,-0.0143433,0.022583,0.0152588,-0.022583,0.0177002,0.110474
112,1,0.0378418,0.12146,0.0177002,-0.00671387,0.00793457,0.0201416,0.0271606,0.0366211,0.0262451,0.0186157,0.0170898,0.00396729,0.0790405
112,2,0.0253296,0.101013,0.0244141,-0.0161743,0.0106812,0.0143433,-0.0860596,0.045166,0.0210571,-0.0262451,-0.0186157,0.0244141,0.0436401
112,3,0.0177002,0.0469971,0.0112915,0.0265503,0.0265503,0.0326538,0.00305176,0.0524902,0.0286865,0.0146484,-0.0222778,-0.00335693,0.00701904
112,4,0.0238037,0.0387573,0.0286865,0.0152588,0.0283813,-0.022583,-0.0109863,0.0299072,-0.017395,0.00793457,-0.0167847,0.0314331,-0.0473022
113,0,0.0137329,0.0250244,0.0100708,-0.00427246,0.00732422,0.0265503,0.0518799,0.0131226,0.0396729,0.0738525,-0.0256348,0.0180054,-0.03479
113,1,0.0350952,0.0210571,0.00579834,0.0537109,0.0250244,0.0198364,-0.0473022,0.0314331,0.0268555,0.0265503,-0.0244141,0.0131226,-0.0708008
113,2,0.0213623,0.0335693,-0.0128174,0.0717163,0.00976562,0.015564,-0.295105,0.0354004,0.0274658,0.0323486,-0.0253296,0.0100708,-0.0811768
113,3,0.0335693,-0.000610352,0.00213623,-0.0314331,0.0369263,0.0180054,0.0686646,0.0408936,0.0375366,0.0631714,-0.00946045,0.0280762,-0.105286
113,4,0.0253296,0.00640869,0.0134277,0.0253296,0.0231934,0.0234985,0.0830078,0.0354004,0.0308228,0.0466919,-0.0286865,0.0186157,-0.158691
114,0,0.0222778,-0.0228882,0.0112915,0.0244141,0.00823975,0.0238037,0.0860596,0.0195312,0.0195312,0.0146484,-0.0396729,0.0177002,-0.264587
114,1,0.020752,0.020752,0.0152588,0.0262451,0.0265503,0.0341797,0.0839233,0.0280762,-0.00823975,0.0308228,-0.0515747,0.015564,-0.264893
114,2,0.00946045,0.0177002,0.020752,0.0210571,0.0140381,0.000610352,0.0772095,0.0427246,0.0341797,0.0186157,-0.0360107,0.0115967,-0.203552
114,3,0.00732422,0.0161743,0,0.032959,0.00946045,0.0204468,0.0561523,0.0448608,0.0418091,0.027771,-0.0482178,0.0152588,-0.216675
114,4,0.0311279,0.0411987,-0.000915527,0.0463867,0.0274658,-0.0119019,0.057373,0.0378418,0.0350952,0.0271606,-0.0512695,0.0256348,-0.233765
115,0,0.0668335,0.0137329,0.00854492,0.038147,0.0180054,0.00366211,0.0662231,0.0167847,0.0247192,0.0427246,-0.0332642,0.0149536,-0.228882
115,1,0.0292969,0.0335693,0.00915527,0.039978,0.0802612,0.0344849,0.071106,0.00946045,0.0112915,0.0366211,-0.032959,-0.000915527,-0.237122
115,2,0.0396729,0.0256348,0.0222778,0.0411987,0.0158691,0.0210571,0.0784302,0.0286865,0.0354004,0.0314331,-0.0387573,0.0219727,-0.202332
115,3,0.0228882,0.00549316,0.0216675,0.0350952,-0.0088501,0.0100708,0.0567627,0.0488281,0.0244141,0.0891113,-0.0140381,0.0192261,-0.173035
115,4,0.0204468,0.0247192,0.0177002,0.0424194,0.0152588,0.00640869,0.0619507,0.0384521,0.0192261,0.0418091,-0.0112915,0.027771,-0.124207
116,0,0.0360107,0.045166,0.00793457,0.0448608,0.0128174,0.00274658,0.0448608,0.0201416,0.0360107,0.0534058,-0.00793457,0.0292969,-0.0332642
116,1,0.0622559,0.0250244,0.0152588,0.0570679,0.00915527,-0.00213623,0.0375366,0.0198364,0.027771,0.0189209,0.010376,0.0170898,0.0585938
116,2,0.022583,0.0323486,0.010376,0.0476074,0.0140381,-0.00701904,0.0427246,0.0338745,0.0494385,0.00823975,-0.0250244,0.0183105,0.174866
116,3,0.03479,0.0195312,0.0180054,0.057373,0.0234985,-0.00335693,0.00274658,0.0430298,0.0473022,0.0891113,-0.0338745,0.0231934,0.24353
116,4,0.0088501,0.0115967,0.0308228,-0.00549316,0.0305176,-0.0219727,0.0500488,0.0189209,0.0341797,0.0772095,-0.0125122,0.0137329,0.232544
117,0,0.0323486,0.0317383,0.015564,0.0460815,-0.0170898,-0.0137329,0.0479126,0.0213623,0.0491333,0.071106,-0.015564,0.0112915,0.250854
117,1,0.010376,0.010376,-0.027771,0.0518799,0.0189209,-0.085144,0.0534058,0.0308228,0.0512695,0.0772095,-0.015564,0.0238037,0.242004
117,2,0.0292969,0.0109863,0.0537109,0.0354004,0.012207,0.00427246,0.0421143,0.0259399,0.039978,0.0854492,-0.022583,0.0302124,0.232544
117,3,0.0320435,0.00457764,0.0231934,0.0509644,0.0204468,0.00915527,0.0234985,0.0289917,0.0552368,0.0952148,-0.0341797,0.0195312,0.180054
117,4,0.0375366,0.0109863,0.0210571,0.0588989,0.0234985,0.010376,0.0204468,0.032959,0.0402832,0.0823975,-0.0384521,0.0167847,0.196533
118,0,0.0222778,-0.00183105,0.0360107,0.0326538,0.0231934,0.0360107,0.0390625,0.022583,0.0384521,0.0753784,-0.0308228,0.0360107,0.167236
118,1,0.0192261,-0.00427246,0.0250244,0.0491333,0.0302124,0.0460815,0.0289917,0.00518799,0.0424194,0.071106,-0.0415039,0.0302124,0.157166
118,2,0.0366211,-0.0234985,0.0222778,0.0497437,0.0167847,0.0695801,0.0265503,0.0265503,0.0442505,0.0845337,-0.0274658,0.0354004,0.0906372
118,3,0.0308228,0.00671387,0.0231934,0.00427246,0.0177002,0.0863647,0.0415039,0.0369263,0.0485229,0.0796509,-0.015564,-0.00366211,0.0405884
118,4,0.0405884,0.0112915,0.0216675,0.0350952,0.015564,0.0830078,0.0283813,0.0238037,0.0192261,0.0485229,-0.0131226,0.0552368,0.0787354
119,0,0.0402832,0.017395,-0.0177002,0.0369263,0.0125122,0.126038,0.0216675,0.0372314,0.0244141,0.0527954,-0.0241089,0.0143433,0.0250244
119,1,0.0402832,0.017395,0.0201416,0.0436401,0.00610352,0.0778198,-0.0204468,0.027771,0.0302124,0.0814819,-0.0332642,0.0360107,0.0100708
119,2,0.0872803,0.0192261,0.0131226,-0.0311279,-0.00213623,0.0616455,0.06073,0.0219727,0.0366211,0.038147,-0.0509644,0.0335693,-0.010376
119,3,0.0314331,0.0219727,0.020752,0.0500488,0.0167847,0.0558472,0.0317383,0.0250244,0.0396729,0.0396729,-0.0286865,0.0131226,-0.0183105
119,4,0.0363159,0.00579834,0.0186157,0.0354004,0.017395,0.0454712,0.0259399,0.0210571,0.0253296,0.0292969,-0.0610352,0.0286865,-0.0332642
120,0,0.0497437,-0.0180054,0.0268555,0.0430298,-0.00518799,0.0314331,0.0302124,0.0305176,0.0308228,0.032959,-0.0393677,0.020752,-0.0585938
120,1,-0.00579834,0.0189209,0.0283813,0.072937,0.0128174,0.00915527,0.0576782,0.027771,0.00823975,0.0384521,-0.0283813,0.0238037,-0.0524902
120,2,0.0143433,0.0134277,-0.0198364,0.0299072,0.0146484,0.0262451,0.0357056,0.0238037,0.0134277,0.0338745,-0.0360107,0.0469971,-0.0759888
120,3,0.0213623,0.00823975,-0.00335693,0.0436401,0.0201416,0.00640869,0.0241089,0.0286865,0.015564,0.0137329,-0.0228882,0.0234985,-0.067749
120,4,0.0338745,0.0149536,0.00671387,0.0283813,0.0265503,0.0210571,0.0244141,0.027771,0.0143433,0.0271606,-0.0375366,0.0311279,-0.0817871
121,0,0.0308228,0.0332642,0.00946045,0.0198364,0.0405884,0.000915527,0.0317383,0.0250244,0.020752,0.0128174,-0.0296021,0.0247192,-0.00762939
121,1,0.00976562,0.0247192,0.020752,-0.0109863,0.0204468,-0.0259399,-0.00579834,0.0192261,0.0134277,-0.0180054,-0.027771,0.0393677,-0.0558472
121,2,0.0302124,0.0274658,0.0268555,0.0341797,0.00305176,0.0387573,0.0140381,0.022583,0.0259399,0.0305176,-0.0247192,0.0283813,-0.0692749
121,3,0.0344849,0.0210571,0.0247192,0.0332642,0.0323486,0.0424194,0.0283813,0.0195312,0.0219727,0.0518799,-0.00946045,0.0335693,-0.0634766
121,4,0.0222778,0.0164795,0.0280762,0.00610352,0.0213623,0.0262451,0.0204468,0.0244141,0.0601196,-0.00671387,-0.0125122,0.0460815,-0.175781
122,0,0.0396729,0.0183105,-0.00335693,0.0439453,0.0186157,0.0576782,0.00915527,0.0311279,0.0296021,0.000610352,-0.0213623,0.0158691,-0.19043
122,1,0.0253296,0.0161743,0.0192261,0.0418091,-0.0338745,0.0549316,0.0274658,0.00671387,0.0204468,-0.00762939,-0.027771,0.0250244,-0.206604
122,2,0.00579834,0.0259399,0.0228882,0.0457764,0.0201416,0.0247192,0.0335693,0.017395,0.0149536,-0.00213623,-0.0323486,0.0482178,-0.20813
122,3,0.0378418,0.0204468,0.0216675,0.0338745,0.00762939,0.0259399,0.0149536,-0.012207,0.0289917,-0.00518799,-0.00549316,0.0189209,-0.206604
122,4,0.0540161,0.0268555,-0.0424194,0.03479,0.0241089,0.062561,0.0256348,0.0326538,0.057373,-0.0119019,-0.0427246,-0.0164795,-0.23407
123,0,0.0454712,0.015564,0.0320435,0.0198364,0.00305176,0.0100708,0.00305176,0.0427246,0.0228882,0.00915527,-0.0320435,0.0302124,-0.214233
123,1,0.03479,0.0259399,0.0317383,0.032959,0.00152588,0.0363159,0.0201416,0.0231934,0.0219727,0.0112915,-0.0357056,0.0772095,-0.248413
123,2,0.0302124,0.0204468,0.0195312,0.0332642,0.0222778,0.0189209,0.0201416,0.0183105,0.0247192,0.00427246,-0.0418091,0.032959,-0.204468
123,3,0.0228882,0.0296021,0.0265503,0.022583,0.0012207,-0.00366211,0.0350952,0.0238037,0.0286865,0.000915527,-0.0384521,0.0244141,-0.246277
123,4,0.0305176,0.0372314,0.017395,0.03479,0.00183105,0.00671387,0.00305176,0.0125122,0.00457764,0.00762939,-0.0360107,0.0119019,-0.256348
124,0,0.0195312,0.0106812,0.0161743,-0.0112915,0.0253296,0.00823975,0.0454712,0.00946045,0.0115967,-0.00152588,-0.0308228,0.022583,-0.265198
124,1,0.0320435,0.0357056,0.0253296,0.0366211,0.00427246,-0.00396729,0.0143433,0.0762939,0.0210571,0.00549316,-0.055542,0.050354,-0.257568
124,2,0.0234985,0.0262451,0.0628662,0.0421143,0.0128174,0.0152588,0.00946045,0.00823975,0.00946045,0.00457764,-0.0262451,0.045166,-0.262146
124,3,0.0384521,0.0320435,0.0256348,0.0506592,0.0164795,0.0152588,0.0222778,0.0219727,0.0143433,0.0134277,-0.0344849,0.045166,-0.304565
124,4,0.0415039,0.0393677,0.0134277,0.0283813,0.00640869,0.0320435,-0.0189209,0.0177002,0.0210571,0.00152588,-0.027771,-0.0234985,-0.35614
125,0,0.0268555,0.0195312,0.0491333,0.0317383,0.0183105,-0.00274658,0.00671387,0.0177002,-0.0482178,0.00854492,-0.0341797,0.0524902,-0.41687
125,1,0.0241089,0.0308228,0.0134277,0.0234985,0.017395,0.000915527,0.0210571,0.0231934,0.0128174,-0.0143433,-0.0366211,0.0704956,-0.509949
125,2,0.0302124,0.0268555,-0.0143433,0.0311279,0.0134277,-0.0332642,0.0164795,0.0247192,-0.0305176,0.000610352,-0.0408936,-0.00610352,-0.58197
125,3,0.0326538,0.00610352,0.0234985,0.0198364,0.010376,-0.00488281,0.0256348,0.0363159,0.0115967,0.000610352,-0.0442505,0.00793457,-0.645447
125,4,0.0302124,0.0390625,-0.0112915,0.0167847,0.00549316,0.022583,0.012207,0.0137329,-0.00244141,0.015564,-0.0357056,0.0366211,-0.666504
126,0,0.0308228,0.0241089,0.0247192,0.0344849,0.0131226,0.0387573,0.0183105,0.010376,0.0250244,0.00823975,-0.0354004,0.0140381,-0.679932
126,1,0.0250244,0.0549316,0.0219727,0.0256348,0.0158691,0.0180054,0.0125122,0.022583,0.0280762,0.00488281,-0.0326538,0.022583,-0.723267
126,2,0.0268555,0.032959,0.0143433,-0.0418091,0.0265503,0.0247192,0.0158691,0.0158691,0.0271606,-0.00732422,-0.0369263,0.0262451,-0.724487
126,3,0.0531006,0.03479,0.0317383,0.0506592,0.010376,0.00274658,0.0137329,0.0192261,0.0201416,0.0088501,-0.0360107,0.0335693,-0.758362
126,4,-0.0289917,0.0195312,0.0265503,0.0634766,0.0384521,0.0134277,0.00366211,0.0244141,0.0125122,0.00671387,-0.0534058,0.0445557,-0.751953
127,0,0.0292969,0.00305176,0.015564,0.0131226,-0.038147,0.0088501,0.012207,0.020752,0.0195312,0.00793457,-0.0378418,0.0350952,-0.73822
127,1,0.0286865,0.0262451,0.022583,0,0.0183105,0.0253296,0.0579834,0.0289917,0.0259399,0.0476074,-0.0296021,0.0234985,-0.74707
127,2,0.0299072,-0.0137329,0.0393677,0.0311279,-0.020752,0.00305176,0.0106812,0.0112915,0.0250244,-0.00335693,-0.0250244,0.0283813,-0.640564
127,3,0.0106812,0.0308228,0.0305176,0.0308228,0.0183105,-0.0595093,0.0161743,0.0320435,0.0604248,0.0338745,-0.0378418,0.0338745,-0.639954
127,4,0.0320435,0.0357056,0.0332642,0.0189209,0.0259399,-0.0195312,0.0216675,0.0283813,0.0256348,0.032959,-0.0314331,0.0491333,-0.63385
128,0,0.0299072,0.0296021,0.0393677,-0.00549316,0.0201416,0.00152588,0.062561,0.010376,0.0189209,0.00854492,-0.0247192,0.0494385,-0.643311
128,1,0.0338745,0.0384521,0.0354004,0.0256348,0.0112915,0.0259399,0.022583,0.0262451,0.032959,0.0308228,-0.0332642,0.0332642,-0.538635
128,2,0.00823975,0.0302124,0.0335693,0.0234985,0.0296021,0.0128174,0.0183105,0.0100708,0.0253296,0.050354,-0.0357056,0.022583,-0.573425
128,3,0.0244141,0.0305176,0.0354004,0.0204468,0.0308228,0.00213623,0.0134277,0.0137329,-0.00427246,0.0390625,-0.0384521,0.0585938,-0.55603
128,4,0.0262451,0.0393677,0.0253296,0.022583,0.0354004,0.0012207,0.0128174,0.0259399,0.0112915,0.0396729,-0.0354004,0.0296021,-0.492249
129,0,0.0463867,0.0778198,0.0134277,0.0280762,0.0619507,0.00549316,0.0115967,-0.00549316,0.022583,0.0280762,-0.0250244,0.0271606,-0.42572
129,1,0.0350952,0.0549316,0.0170898,0.0253296,0.017395,0.00701904,-0.00427246,0.0177002,0.00701904,0.0506592,-0.0198364,0.0567627,-0.45166
129,2,0.0393677,0.0262451,0.03479,0.0350952,0.0253296,-0.0119019,0.010376,0.0100708,0.00793457,0.0317383,-0.0354004,0.0152588,-0.540771
129,3,0.0256348,0.0772095,0.012207,0.0198364,0.0485229,-0.00152588,0.00244141,0.0256348,0.0262451,0.0271606,-0.0286865,0.0335693,-0.744629
129,4,0.0158691,0.0222778,0.0244141,-0.00549316,0.0332642,0.00518799,0.0164795,0.00793457,0.0164795,0.0338745,-0.0253296,0.0311279,-0.761719
130,0,0.0537109,0.0231934,0.0317383,0.0189209,0.0314331,-0.0387573,0.0280762,0.027771,0.0146484,0.0305176,-0.0408936,0.043335,-0.590515
130,1,0.0186157,0.0421143,0.0146484,0.0216675,0.0326538,0.000305176,0.0134277,0.017395,0.020752,0.0292969,-0.0524902,0.0442505,-0.438232
130,2,0.0192261,0.0222778,0.0256348,0.00823975,0.0149536,0.00183105,0.0183105,0.0180054,0.0222778,0.0265503,-0.0253296,0.0332642,-0.380249
130,3,0.0518799,0.0357056,0.0244141,0.0183105,0.0115967,0.032959,0.0146484,0.0210571,0.015564,0.0390625,-0.0366211,0.0302124,-0.29541
130,4,0.0271606,0.0299072,0.0228882,0.0198364,0.0311279,-0.00854492,-0.0195312,0.0204468,0.0372314,-0.0234985,-0.0393677,0.0253296,-0.207825
131,0,0.0317383,0.0436401,0.0335693,0.0143433,0.0219727,-0.0213623,0.0189209,-0.00518799,0.0244141,-0.00762939,-0.0473022,0.0265503,-0.17334
131,1,0.0357056,0.0256348,0.0241089,0.00823975,0.0366211,-0.020752,0.0167847,0.0280762,0.020752,0.0296021,-0.0469971,0.0344849,-0.0802612
131,2,0.0280762,0.0390625,-0.0305176,-0.0222778,0.0158691,-0.0219727,0.0292969,0.0228882,0.0350952,0.0231934,-0.0369263,0.0375366,0.0204468
131,3,0.0308228,0.0518799,0.0335693,0.00946045,0.0149536,-0.0302124,0.0161743,0.0656128,0.0311279,0.0146484,0.0100708,0.0308228,0.0634766
131,4,0.0357056,0.0393677,0.0296021,0,0.0234985,-0.0183105,0.00793457,0.0167847,0.0411987,-0.0012207,-0.0338745,0.0692749,0.101929
132,0,0.0128174,0.038147,0.0308228,0.0088501,0.0250244,-0.0204468,0.0204468,0.0231934,0.0283813,0.0149536,-0.0390625,0.0393677,0.125122
132,1,0.0216675,0.0375366,-0.0427246,-0.00274658,0.0231934,0.0308228,0.0326538,0.012207,0.0219727,0.0128174,-0.0250244,0.0354004,0.117493
132,2,0.0213623,0.0509644,0.00518799,0.00427246,0.0143433,0.0592041,0.0119019,0.027771,0.0308228,0.00793457,-0.0323486,0.0296021,0.129089
132,3,0.0341797,0.0338745,0.0436401,0.00823975,0.0140381,0.0314331,-0.0228882,0.0164795,0.0311279,0.0228882,-0.0271606,0.0283813,0.160217
132,4,0.0143433,0.0463867,0.0143433,0.00701904,0.0128174,0.0421143,0.0247192,0.0509644,0.0259399,0.0180054,-0.0366211,0.0231934,0.114136
133,0,0.0350952,0.0292969,0.0259399,0.0180054,0.0231934,0.0552368,0.00488281,0.00915527,0.0234985,0.00305176,-0.0280762,0.0335693,0.128784
133,1,0.0292969,0.0265503,0.0256348,0.0210571,0.0204468,0.0543213,0.00762939,0.027771,0.0250244,-0.00335693,-0.0463867,0.0186157,0.0595093
133,2,0.0308228,0.0335693,0.0216675,0.00396729,0.027771,0.0442505,0.0283813,0.0466919,0.010376,0.0152588,-0.0588989,0.0283813,0.104065
133,3,0.0335693,0.0320435,0.0308228,0.0158691,0.0228882,0.0463867,-0.0192261,0.017395,0.0213623,0.00610352,-0.0216675,0.0326538,0.0378418
133,4,0.0320435,0.0262451,0.0274658,0.00915527,0.0186157,0.0292969,0.0137329,0.0204468,0.0149536,-0.00183105,-0.0115967,0.0286865,0.143433
134,0,0.0308228,0.0256348,0.0140381,0.0198364,0.0204468,0.0372314,0.0262451,0.0149536,0.00732422,0.0296021,-0.0247192,0.000610352,0.216675
134,1,0.0186157,0.0280762,0.0427246,0.0360107,0.00732422,0.0466919,0.0210571,0.00549316,-0.0201416,0.0100708,-0.0186157,0.017395,0.177002
134,2,0.0296021,0.0231934,0.0234985,0.0415039,0.0131226,0.0875854,0.00915527,0.0317383,-0.000610352,0.0012207,-0.012207,0.03479,0.169983
134,3,0.0335693,0.022583,0.0128174,0.00854492,0.0286865,0.0735474,0.0369263,0.0167847,-0.00518799,0.0167847,-0.00671387,0.0320435,0.161438
134,4,0.0192261,0.0234985,-0.00152588,0.0274658,0.022583,-0.0109863,0.0158691,0.0192261,-0.0479126,-0.00427246,-0.00915527,0.0491333,0.169678
135,0,0.0411987,0.032959,0.0408936,0.0445557,0.0222778,0.045166,0.0164795,0.0158691,-0.00183105,0.015564,-0.0195312,0.0262451,0.204163
135,1,0.03479,0.0250244,0.0799561,0.0222778,0.00976562,0.0491333,0.0311279,0.0180054,-0.00701904,0.00274658,-0.00915527,0.0271606,0.169067
135,2,0.0445557,0.0259399,0.0268555,0.043335,0.0149536,0.0592041,0.0350952,0.0149536,-0.0012207,-0.00457764,-0.00946045,0.0228882,0.163269
135,3,0.0219727,0.0256348,0.0289917,0.0216675,0.00854492,0.0500488,0.0454712,-0.00427246,-0.00366211,0.0152588,-0.00640869,0.0125122,0.149841
135,4,0.017395,0.0228882,0.0274658,0.0244141,0.0164795,0.0271606,0.0161743,0.0152588,0.00396729,0.0164795,-0.0286865,0.0259399,0.0787354
136,0,0.027771,0.0180054,0.0387573,0.0271606,0.00671387,0.038147,0.0231934,0.0512695,0.00946045,0.0161743,-0.0228882,0.03479,0.176697
136,1,0.0366211,0.0305176,0.0393677,0.0500488,0.0253296,0.0421143,0.0210571,0.0137329,-0.00427246,0.0421143,-0.0222778,0.0314331,0.230408
136,2,0.039978,0.0338745,0.0393677,0.00244141,0.0170898,0.0222778,0.0115967,0.0167847,0.00427246,0.0161743,-0.0216675,0.0213623,0.324097
136,3,0.0253296,0.0430298,0.0143433,0.0186157,0.0305176,0.0299072,0.0228882,0.0219727,-0.0372314,0.0128174,-0.0234985,0.0689697,-1.15448
136,4,0.0280762,0.0289917,0.0436401,0.0283813,0.0204468,0.017395,0.0125122,0.0332642,0.00457764,0.00335693,-0.00274658,0.022583,-1.55334
137,0,0.0671387,0.0152588,0.0259399,-0.0341797,0.027771,0.0170898,0.0286865,0.0119019,0.00488281,0.0326538,-0.0515747,0.00793457,-0.535278
137,1,0.0268555,0.0140381,0.0384521,0.0250244,0.0326538,-0.00640869,0.0241089,0.0262451,0.0170898,0.0128174,-0.0201416,0.00701904,0.0418091
137,2,0.0665283,0.0350952,0.0265503,-0.0332642,0.0338745,0.00335693,0.0335693,0.00671387,0.015564,0.0231934,-0.0268555,0.0152588,0.307312
137,3,0.0299072,0.0238037,0.0430298,0.0170898,0.0314331,-0.00244141,0.0201416,-0.0296021,0.0256348,0.0305176,-0.0262451,0.0354004,0.415649
137,4,-0.0131226,0.0384521,0.0289917,0.0857544,0.043335,-0.00427246,0.0650024,0.0088501,0.0259399,0.0482178,-0.0128174,0.0149536,0.547485
138,0,0.0378418,0.012207,0.0296021,0.0637817,0.022583,0.0149536,0.0378418,0.0134277,0.00274658,0.0253296,-0.0146484,0.0332642,0.619202
138,1,0.0274658,0.0247192,-0.017395,0.0231934,0.0286865,-0.0448608,0.0308228,0.00640869,0.00579834,0.015564,-0.0195312,0.0231934,0.609436
138,2,0.0131226,0.00732422,0.0256348,0.0280762,0.0360107,-0.00457764,0.0302124,0.032959,-0.0146484,0.0354004,-0.0360107,-0.015564,0.591125
138,3,0.0210571,0.0344849,0.0253296,0.0219727,0.0320435,0.00213623,0.0402832,0.0213623,0.0372314,0.0149536,-0.0238037,0.0146484,0.546875
138,4,0.0350952,0.0289917,0.0317383,0.0247192,0.0112915,0.00762939,0.0274658,0.0125122,0.0231934,0.0299072,-0.0274658,0.0405884,0.555725
139,0,0.0158691,0.0158691,0.0408936,0.0186157,0.0299072,0.00396729,0.0259399,0.0140381,0.0256348,0.0146484,-0.0265503,0.0161743,0.523376
139,1,0.0265503,0.0296021,-0.010376,0.0308228,0.020752,0.000610352,0.0161743,0.0109863,0.0317383,0.0109863,-0.0326538,0.0152588,0.466919
139,2,0.0177002,0.000305176,0.0259399,0.0271606,0.0320435,0.0302124,0.0213623,0.0378418,-0.00762939,0.0115967,-0.0384521,-0.0393677,0.477295
139,3,0.0265503,0.0213623,0.0415039,0.0152588,0.0360107,0.0234985,0.00976562,0.0238037,-0.00152588,0.00793457,-0.0228882,0.0213623,0.447083
139,4,0.027771,0.0338745,0.0363159,0.020752,0.0393677,0.0250244,0.0283813,0.0537109,0.0228882,0.00915527,-0.0231934,0.043335,0.430908
140,0,0.0109863,0.0457764,0.038147,0.00732422,0.012207,0.0384521,0.0335693,0,0.0280762,0.0128174,-0.0219727,0.010376,0.403748
140,1,0.0595093,0.0265503,0.0289917,0.0292969,0.0375366,0.03479,0.0341797,0.0125122,0.027771,0.0250244,-0.0360107,0.0134277,0.415649
140,2,0.0247192,0.0219727,0.0643921,0.0177002,0.0152588,-0.022583,0.0341797,0.0140381,-0.0311279,0.0244141,-0.0289917,0.0732422,0.422058
140,3,0.0387573,0.020752,0.0323486,0.0332642,0.0259399,0.0387573,0.0445557,0.0186157,0.00762939,0.00946045,-0.0244141,0.015564,0.517273
140,4,0.0161743,-0.010376,0.0305176,0.0396729,0.0750732,0.0210571,0.0253296,0.0128174,0.00640869,-0.00274658,-0.0183105,0.00732422,0.525513
141,0,0.0231934,0.0183105,0.0479126,0.0369263,0.0332642,0.0268555,0.0259399,0.00732422,0.0152588,0.0170898,-0.0265503,0.0183105,0.56427
141,1,0.0170898,0.0146484,0.0204468,0.0152588,0.0280762,0.0210571,0.0485229,0.00396729,0.00854492,-0.000305176,-0.0213623,0.0280762,0.584717
141,2,0.0244141,0.00946045,0.0164795,0.0289917,0.0311279,0.00518799,0.0341797,-0.0231934,0.0204468,0.0137329,-0.0241089,0.0146484,0.578918
141,3,0.0198364,0.0137329,0.0177002,0.0274658,0.0274658,0.0167847,0.0485229,0.0134277,0.0186157,0.0521851,-0.0234985,0.0146484,0.516357
141,4,-0.0161743,0.0125122,0.0289917,-0.00976562,0.0271606,0.00976562,0.0372314,0.03479,0.0149536,-0.00213623,-0.0228882,0.0231934,0.560303
142,0,0.0134277,0.0189209,-0.00305176,0.0292969,0.00915527,0.00915527,0.0311279,0.0167847,0.0238037,0.00640869,-0.027771,0.00976562,0.526733
142,1,0.0305176,0.0189209,0.0192261,0.0350952,0.020752,0.00457764,0.017395,0.0308228,0.032959,0.0109863,-0.0314331,0.00366211,0.522156
142,2,0.0247192,0.0106812,0.0247192,0.0271606,0.0183105,-0.00488281,0.0296021,0.0228882,0.0292969,0.0198364,-0.0234985,-0.00396729,0.496216
142,3,0.0216675,-0.012207,0.0378418,0.043335,-0.0012207,0.012207,0.0265503,0.0201416,0.0283813,0.0415039,-0.0201416,0.0283813,0.480957
142,4,0.0268555,0.0354004,0.0109863,0.0213623,0.0250244,0.0668335,0.0494385,0.015564,0.0982666,0.0228882,-0.0222778,0.0445557,0.319214
143,0,0.015564,0.0283813,0.00183105,0.0289917,0.038147,0.0662231,0.045166,0.0186157,0.0210571,0.0384521,-0.0253296,0.0128174,0.334167
143,1,0.0158691,0.0210571,0.0180054,0.0311279,0.0149536,0.038147,0.020752,0.0457764,0.0128174,0.027771,-0.0616455,0.0109863,0.320129
143,2,0.0115967,0.0219727,0.027771,0.0405884,0.0357056,0.0274658,0.0393677,0.0274658,-0.0509644,0.0134277,-0.0213623,0.015564,0.258789
143,3,0.0198364,0.0250244,0.0100708,0.0314331,0.0128174,0.0216675,0.0350952,-0.0231934,0.0366211,0.0177002,-0.0152588,0.0250244,0.211487
143,4,0.017395,0.00274658,0.0180054,0.0262451,0.010376,0.0134277,0.0457764,0.0320435,0.0280762,0.0164795,-0.0149536,0.0332642,0.184021
144,0,-0.00579834,0.0241089,0.0100708,-0.0216675,0.0222778,0.00579834,-0.00701904,0.0222778,0.0161743,0.0421143,-0.0158691,0.022583,0.138245
144,1,0.0112915,0.0396729,0.017395,0.0299072,0.0259399,0.00762939,0.0357056,0.0137329,0.0360107,-0.00213623,-0.012207,0.0149536,0.106201
144,2,0.038147,0.015564,0.0210571,0.00396729,0.0201416,0.00579834,0.0247192,0.0372314,0.032959,-0.0112915,-0.017395,0.0250244,0.17395
144,3,0.0177002,-0.0268555,-0.00640869,0.0314331,0.0445557,0.0317383,0.0320435,0.03479,0.0210571,0.0164795,-0.0262451,0.0210571,0.108643
144,4,0.0146484,0.0143433,0.0256348,0.020752,0.0262451,-0.0164795,0.0448608,0.03479,0.0335693,-0.00366211,-0.0109863,0.0164795,-0.0427246
145,0,0.0250244,0.0128174,0.0271606,0.0143433,0.0198364,-0.00915527,0.0335693,0.0292969,0.0408936,0.0286865,-0.0344849,0.0198364,-0.10376
145,1,0.00274658,0.00823975,0.0219727,0.0195312,0.0384521,-0.0161743,0.0262451,0.020752,0.0216675,0.0134277,-0.0106812,0.0708008,-0.19043
145,2,0.00762939,0.0201416,0.0201416,0.0210571,0.0305176,0.00793457,0.0271606,-0.000610352,0.0286865,0.0305176,0.000610352,0.0106812,-0.267029
145,3,-0.0253296,0.0259399,0.022583,0.078125,0.0335693,0.0247192,0.0115967,0.0228882,0.022583,0.055542,-0.0192261,0.0106812,-0.316467
145,4,0.0137329,0.00854492,0.0460815,0.0238037,0.03479,0.032959,0.0210571,0.0219727,0.0115967,0.00701904,-0.0253296,0.0204468,-0.267639
146,0,0.00946045,0.0183105,0.0256348,0.0152588,0.0360107,0.0646973,0.0134277,0.0231934,0.0192261,-0.0384521,-0.0350952,0.0149536,-0.246277
146,1,0.0222778,0.00610352,0.0198364,0.010376,0.0344849,0.0918579,0.0131226,0.0280762,0.00213623,0.0137329,-0.0137329,-0.000610352,-0.214844
146,2,0.0265503,0.0161743,0.0213623,0.0216675,0.0308228,0.124512,0.0357056,0.0244141,-0.000610352,0.0128174,-0.00946045,0.0216675,-0.240173
146,3,0.00976562,0.022583,0.0311279,0.0259399,0.0344849,0.102234,0.0259399,-0.0466919,0.0115967,0.0088501,-0.0100708,0.015564,-0.227051
146,4,0.0296021,0.0253296,-0.00183105,0.03479,0.020752,0.0619507,0.0323486,0.0549316,-0.00274658,0.00579834,-0.0271606,0.00427246,-0.227966
147,0,0.0192261,-0.0238037,0.0387573,0.0372314,0.0317383,0.0500488,0.0305176,-0.00335693,0.00457764,0.0198364,-0.0167847,0.0106812,-0.271606
147,1,0.0100708,0.017395,0.0143433,0.0213623,0.0140381,0.03479,0.0158691,0.0180054,-0.00213623,0.0128174,-0.0177002,0.0012207,-0.269165
147,2,0.0274658,0.0088501,0.0177002,0.0219727,0.0314331,0.0317383,0.0289917,0.0210571,-0.000610352,-0.0305176,-0.0210571,0.0112915,-0.267334
147,3,0.0106812,-0.0234985,0.0128174,0.0219727,0.0234985,0.045166,0.0219727,0.0415039,0.00854492,0.0354004,-0.0320435,0.0744629,-0.249329
147,4,-0.0112915,0.00488281,0.0170898,0.0216675,0.0198364,0.0576782,0.00976562,0.0158691,0.0012207,0.0262451,-0.0262451,0.0149536,-0.198059
148,0,0.000305176,0.0344849,0.010376,0.00671387,0.0201416,0.0439453,0.0186157,0.0213623,-0.0088501,0.00274658,-0.0262451,0.0354004,-0.250549
148,1,0.0244141,-0.00549316,0.0445557,0.0140381,0.0335693,0.0408936,0.0125122,0.0271606,-0.000305176,0.0234985,-0.0289917,0.015564,-0.269165
148,2,0.0189209,0.00976562,-0.00366211,0.0219727,0.0286865,0.0411987,0.0360107,0.015564,0.000305176,0.0442505,-0.0198364,0.0109863,-0.253296
148,3,0.0161743,0.0271606,-0.0378418,0.0213623,0.0231934,0.039978,0.0280762,0.0137329,0.00640869,0.0231934,-0.0131226,-0.0112915,-0.177612
148,4,0.0543213,0.0213623,0.0149536,0.0479126,0.0405884,0.0415039,0.0357056,0.032959,0.0192261,0.0280762,-0.0357056,0.0143433,-0.125122
149,0,0.0140381,0.0192261,0.0125122,0.00915527,0.0308228,-0.00732422,0.0393677,0.0241089,-0.0149536,0.00183105,-0.0100708,0.0421143,-0.0671387
149,1,0.0204468,0.0253296,0.00640869,-0.0363159,0.0448608,0.020752,0.0274658,0.0177002,0.0234985,0.00183105,-0.00427246,0.0189209,0.0372314
149,2,0.0146484,0.0131226,0.0140381,0.0134277,0.0857544,0.0375366,0.0128174,-0.0286865,0.0222778,0.0238037,-0.0119019,0.0244141,0.0915527
149,3,0.0189209,0.0366211,0.0265503,0.0183105,0.027771,0.00915527,0.0299072,0.0317383,0.0302124,0.0238037,-0.022583,0.0350952,0.128479
149,4,0.00274658,0.0146484,0.0686646,0.00671387,0.027771,-0.0457764,0.0476074,0.03479,0.0268555,0.0161743,-0.0186157,0.0137329,0.163879
150,0,0.00518799,0.0167847,0.00701904,0.0100708,0.0234985,0.0192261,0.0494385,0.0271606,0.0479126,0.00640869,-0.0106812,-0.0140381,0.130005
150,1,0.0244141,0.0146484,-0.0161743,0.0210571,0.0283813,0.0106812,0.0311279,0.0323486,0.0476074,0.0247192,-0.0125122,0.0186157,0.0674438
150,2,0.020752,-0.000610352,0.0161743,0.00640869,0.0164795,0.0125122,0.0415039,0.0234985,0.0320435,0.0350952,-0.0430298,0.0247192,0.039978
150,3,0.00488281,-0.020752,0.010376,0.0109863,0.0262451,0.0140381,0.0265503,0.0283813,0.0421143,0.0177002,-0.0152588,0.0106812,0.0378418
150,4,-0.00457764,0.0189209,0.0195312,0.0317383,0.0256348,0.00946045,0.0308228,0.0363159,0.0143433,0.0164795,-0.0195312,0.0289917,0.00640869
151,0,0.00732422,0.0244141,0.022583,-0.00610352,0.0317383,0.00183105,0.0402832,0.020752,0.0512695,0.0375366,-0.0152588,0.00549316,-0.00244141
151,1,0.0540161,0.045166,0.0234985,0.0231934,0.0189209,-0.00335693,0.0210571,0.0274658,0.0338745,0.0250244,0.0152588,0.0238037,-0.00946045
151,2,0.0186157,0.0259399,0.0183105,0.0250244,0.0167847,0.000305176,0.00915527,0.0531006,0.0344849,0.0302124,-0.0292969,-0.00244141,0.0189209
151,3,0.0250244,0.0228882,0.0186157,0.0195312,0.0268555,-0.00701904,0.0106812,0.0280762,0.0375366,0.0311279,-0.0286865,0.020752,0.0836182
151,4,0.0143433,0.00762939,-0.00213623,0.0115967,0.0109863,-0.0283813,0.0247192,0.0213623,0.0546265,0.00640869,-0.0372314,0.00762939,0.1651
152,0,0.0164795,0.0332642,0.0271606,0.015564,0.0418091,-0.0152588,0.0253296,0.0210571,0.0460815,0.0369263,-0.0140381,0.0100708,0.253296
152,1,0.0213623,0.0350952,0.015564,0.03479,0.0265503,0.0134277,0.0149536,0.0238037,0.038147,0.0418091,-0.0305176,0.00549316,0.26001
152,2,0.0204468,0.0256348,0.0247192,0.0152588,0.0390625,0.00762939,0.0216675,0.0216675,0.0534058,0.0183105,-0.032959,-0.0189209,0.231018
152,3,0.010376,0.0198364,0.0283813,0.0234985,0.0402832,0.0283813,0.0219727,0.0378418,0.103455,0.0442505,-0.0350952,0.0149536,0.0836182
152,4,0.0183105,0.0161743,0.000305176,0.0128174,0.0341797,0.0531006,0.0152588,0.0283813,0.0476074,0.0357056,-0.0247192,0.043335,0.085144
153,0,0.00152588,0.0183105,0.00610352,0.0128174,0.012207,0.045166,0.038147,0.0213623,0.0488281,0.0442505,-0.0280762,0.00244141,-0.196533
153,1,-0.00305176,-0.0152588,0.0204468,0.0213623,0.0283813,0.0369263,0.0436401,0.0332642,0.0350952,0.0256348,-0.0210571,0.0109863,-1.17615
153,2,0.0183105,0.0164795,0.0143433,0.0210571,0.0344849,0.0439453,0.0439453,0.0326538,0.0350952,0.0537109,-0.0228882,0.0115967,-0.523682
153,3,0.0415039,0.0180054,0.0198364,0.0265503,0.0146484,0.0357056,0.0311279,0.0250244,0.0335693,0.0259399,-0.0250244,-0.00427246,-0.197449
153,4,0.00946045,0.0189209,0.010376,0.00823975,0.0140381,0.0363159,0.0387573,0.0292969,0.0283813,-0.00274658,-0.0164795,0.010376,0.0247192
154,0,0.0183105,0.043335,0.0204468,0.0332642,0.0112915,0.0259399,0.0350952,0.0317383,0.032959,-0.012207,-0.0262451,0.0201416,0.193481
154,1,0.017395,0.0344849,0.0186157,0.0366211,-0.00854492,0.0592041,0.0109863,0.0280762,0.0314331,0.050354,-0.0143433,0.00427246,0.290833
154,2,0.0201416,0.0292969,0.0149536,0.0210571,-0.000610352,0.105591,0.0274658,0.0308228,0.0610352,0.0384521,-0.0146484,0.0088501,0.261841
154,3,0.0262451,0.0213623,0.00518799,0.0863647,0.0219727,0.06073,0.0558472,0.0219727,0.0186157,-0.0491333,-0.0109863,0.00671387,0.41687
154,4,0.0274658,0.022583,-0.0115967,0.0274658,0.015564,0.050354,0.0357056,0.0460815,0.0360107,0.0170898,0.00366211,0.00335693,0.396729
155,0,0.015564,0.0320435,0.0112915,0.0228882,0.0146484,0.00854492,0.0341797,0.0323486,0.0183105,-0.0436401,-0.0143433,0.00366211,0.383911
155,1,0.00488281,0.0210571,0,-0.0109863,0.0149536,0.0234985,0.020752,0.0360107,0.0332642,0.0177002,-0.0161743,0.00854492,0.372314
155,2,0.0234985,0.00915527,0.0137329,0.0222778,0.0134277,0.0354004,0.0238037,0.0250244,0.0280762,-0.0137329,-0.0183105,0.0109863,0.371704
155,3,0.0308228,-0.0012207,0.0119019,0.038147,0.0177002,0.0308228,0.0299072,0.0350952,0.0302124,0.038147,0.00488281,0.0195312,0.37323
155,4,0.0436401,0.00671387,0.0106812,0.0088501,0.0305176,0.0463867,0.0186157,0.0128174,-0.0158691,0.0460815,-0.00427246,-0.0521851,0.359497
156,0,0.0228882,0.0213623,0.0088501,0.0317383,0.0195312,0.0311279,0.022583,0.0177002,0.027771,0.0421143,0.00274658,0.0137329,0.327148
156,1,0.0305176,0.015564,0.0738525,0.0292969,0.0219727,0.0588989,0.0149536,0.0238037,0.0167847,0.0372314,-0.0109863,-0.00457764,0.335999
156,2,0.00213623,0.0341797,0.0189209,0.0238037,0.0189209,0.0683594,0.0234985,0.0012207,0.0265503,0.0448608,-0.0201416,0.0238037,0.277405
156,3,0.0112915,0.0247192,0.00244141,0.0164795,-0.0204468,0.0811768,0.045166,0.000610352,0.0283813,0.0326538,-0.0177002,0.0244141,0.205383
156,4,0.0198364,0.0216675,0.0219727,0.0109863,0.0247192,0.0997925,0.0415039,0.0268555,0.0317383,0.0598145,-0.0238037,-0.00732422,0.174561
157,0,0.0292969,0.0817871,0.00946045,0.0152588,-0.0317383,0.0991821,0.0314331,0.0390625,0.0311279,0.0576782,-0.00396729,0.010376,0.130005
157,1,0.0204468,0.000610352,0.0247192,0.0164795,0.0259399,0.0900269,0.0259399,0.0341797,0.0265503,0.0506592,-0.0241089,0.0180054,0.110474
157,2,0.0170898,0.0234985,0.00274658,0.0164795,0.027771,0.0872803,0.0372314,0.0387573,0.0308228,0.0558472,-0.0408936,-0.0012207,0.0906372
157,3,0.00549316,0.0134277,0.0646973,0.00305176,0.0137329,0.0540161,0.0344849,0.0192261,0.022583,0.0561523,-0.0189209,0.0219727,0.0360107
157,4,0.0125122,0.0228882,0.017395,-0.0115967,0.0192261,0.0512695,0.0933838,0.0228882,0.0189209,0.0479126,-0.0354004,0.020752,0.0515747
158,0,0.0231934,0.0161743,0.0521851,0.0164795,0.00579834,-0.00366211,0.038147,0.0286865,0.0460815,0.0442505,-0.0286865,-0.045166,0.0717163
158,1,0.00549316,0.0274658,0.03479,0.0350952,0.0189209,0.00488281,0.0204468,0.0372314,0.0308228,0.0405884,-0.0292969,0.0192261,0.0820923
158,2,0.0341797,0.0186157,0.0152588,0.0317383,0.00549316,-0.00152588,0.0228882,0.0311279,0.0189209,0.0570679,-0.0262451,0.0311279,0.0576782
158,3,0.0149536,0.0247192,0.0143433,0.0265503,0.0119019,0.0323486,0.0384521,0.0292969,0.0430298,0.0454712,-0.0140381,0.0134277,0.0650024
158,4,0.00396729,0.0219727,-0.00305176,0.0268555,0.0238037,0.0402832,0.0341797,0.038147,0.0424194,0.0292969,-0.0195312,0.0219727,0.0680542
159,0,0.0247192,0.0247192,0.0216675,0.00305176,0.0344849,0.00976562,0.022583,0.0344849,0.0506592,0.050354,-0.0164795,0.0292969,0.0390625
159,1,0.0256348,0.00640869,0.0790405,0.010376,0.0180054,-0.0439453,0.0280762,0.0427246,0.0671387,0.0244141,-0.0201416,0.0231934,0.0393677
159,2,0.0204468,0.0180054,0.0350952,0.0106812,0.0274658,0.000610352,0.0201416,0.0326538,0.0360107,0.0283813,-0.039978,0.0195312,0.0241089
159,3,0.0152588,0.0320435,0.0119019,0.00915527,0.0234985,0.0799561,0.0372314,0.0259399,0.0860596,0.0378418,-0.0271606,-0.0265503,0.0244141
159,4,0.0253296,0.0292969,0.0253296,0.0222778,0.0216675,-0.00549316,0.0234985,0.0363159,0.0424194,0.020752,-0.0280762,0.032959,0.0283813
160,0,0.0167847,0.0161743,0.0192261,0.022583,0.0799561,-0.0134277,0.0244141,0.0192261,0.0274658,0.0280762,-0.0460815,0.0268555,0.0134277
160,1,0.0582886,0.022583,0.0186157,0.0323486,0.0323486,-0.0109863,0.0222778,0.0177002,0.0457764,0.0479126,-0.0408936,0.0241089,0.0234985
160,2,0.0256348,-0.0259399,0.0421143,0.0106812,0.0332642,-0.045166,0.0308228,0.0268555,0.0338745,0.0213623,-0.0341797,0.0274658,0.0112915
160,3,0.0219727,0.0234985,0.0244141,0.0140381,0.0271606,-0.0231934,0.0219727,0.0213623,0.0488281,0.0350952,-0.0497437,0.0271606,0.0234985
160,4,0.0717163,0.0222778,0.0183105,0.0418091,0.0137329,-0.038147,0.0588989,0.0259399,0.0579834,0.0335693,-0.0323486,0.022583,-0.00671387
161,0,0.0250244,0.0128174,0.00762939,0.00457764,0.0286865,-0.0396729,0.0393677,0.0640869,0.0430298,0.027771,-0.00427246,0.0286865,-0.022583
161,1,0.0201416,0.0189209,0.0149536,0.0210571,0.0366211,-0.0228882,0.0244141,0.0271606,0.045166,0.0119019,-0.0622559,0.00701904,-0.0134277
161,2,0.0210571,0.0222778,0.0189209,-0.0128174,0.0164795,0.00335693,0.0561523,0.0296021,0.0476074,0.0695801,-0.0448608,0.022583,-0.00915527
161,3,0.0177002,0.0317383,0.0256348,0.0012207,0.0198364,0.015564,0.0241089,0.0216675,0.020752,0.0210571,-0.0534058,0.0268555,-0.0228882
161,4,0.0192261,0.0115967,0.00488281,0.0149536,0.00976562,0.0442505,0.0289917,0.00793457,0.0646973,-0.0967407,-0.0332642,0.0308228,-0.0198364
162,0,0.0296021,0.0201416,0.0161743,0.0228882,0.0210571,0.0613403,0.0372314,0.010376,0.000305176,0.0149536,-0.0317383,0.0231934,-0.0204468
162,1,0.0265503,-0.0442505,0.0271606,0.00427246,0.0686646,0.0558472,0.0274658,0.00305176,-0.0216675,-0.0250244,-0.0350952,0.0335693,-0.0253296
162,2,0.0262451,0.0283813,0.0256348,0.0366211,-0.0186157,0.062561,0.0265503,0.0335693,0.00305176,-0.012207,-0.0253296,0.0302124,-0.0338745
162,3,0.0210571,0.0204468,0.0109863,-0.000305176,0.0167847,0.0616455,0.065918,0.017395,0.0161743,-0.0967407,-0.0308228,0.0186157,-0.039978
162,4,0.0314331,0.022583,0.0143433,0.00274658,0.00640869,0.0558472,0.0350952,0.0320435,-0.00213623,0.0619507,-0.0454712,0.0314331,-0.0616455
163,0,0.0219727,0.0384521,0.022583,0.0292969,0.00946045,0.0524902,0.0323486,0.0268555,0.0158691,0.0485229,-0.0302124,0.0265503,-0.0674438
163,1,0.0256348,0.0265503,0.0137329,0.0170898,0.00701904,0.0418091,0.0167847,0.0186157,0.0152588,0.020752,-0.0149536,0.0299072,-0.116577
163,2,0.0302124,0.0286865,0.0326538,0.0198364,0.0146484,0.0708008,0.0186157,0.0308228,0.00671387,0.043335,-0.0204468,-0.0350952,-0.0683594
163,3,0.0274658,0.0354004,0.0354004,0.0280762,0.015564,0.0753784,0.0204468,0.0112915,0.0253296,-0.567932,0.00244141,0.0146484,-0.100708
163,4,0.0350952,-0.0317383,0.0271606,0.0222778,0.0186157,0.0494385,0.0305176,0.0616455,0.0186157,0.0570679,-0.0234985,0.022583,-0.129089
164,0,0.0231934,0.0204468,0.0280762,0.00701904,0.027771,0.0405884,0.0274658,0.0354004,0.00457764,0.0186157,-0.0134277,0.0198364,-0.145874
164,1,0.0778198,0.0198364,0.0186157,0.0299072,0.0332642,0.0424194,0.0134277,0.039978,-0.0262451,-2.2995,-0.00640869,0.0424194,-0.161133
164,2,0.0311279,0.012207,0.0280762,0.0308228,0.0247192,0.03479,0.0280762,0.0164795,-0.038147,-0.298157,-0.0253296,0.0213623,-0.0952148
164,3,0.0411987,0.0186157,0.0131226,0.0161743,0.0088501,0.0512695,0.0158691,0.0299072,-0.0350952,0.208435,-0.0491333,0.0149536,-0.0473022
164,4,0.020752,0.0238037,0.0408936,0.00671387,-0.0088501,0.000610352,0.0198364,0.0167847,-0.0436401,-1.64948,-0.0198364,0.0161743,-0.0543213
165,0,0.0274658,0.00946045,0.0134277,0.032959,0.0241089,0.00701904,0.00183105,0.0244141,-0.0115967,-0.0604248,-0.0302124,0.0250244,-0.0646973
165,1,0.0488281,0.012207,0.0292969,0.0189209,0.0228882,0.020752,0.022583,0.0100708,-0.0372314,0.278015,-0.0216675,0.0274658,-0.0778198
165,2,0.0387573,0.0210571,0.0161743,0.0146484,0.0286865,-0.0164795,0.0790405,0.032959,-0.0256348,-2.14508,-0.0375366,0.0140381,-0.0741577
165,3,0.0296021,0.0335693,0.0128174,0.0012207,0.0201416,0.00640869,0.0210571,0.0247192,-0.0204468,0.621338,-0.039978,0.0222778,-0.126648
165,4,0.0299072,0.0509644,0.00518799,0.0109863,0.0354004,0.0332642,0.0177002,0.0161743,0.0366211,0.588684,-0.0393677,0.0494385,-0.106812
166,0,0.0265503,0.0698853,0.0149536,0.0100708,0.0372314,0.00274658,0.00915527,0.0088501,-0.00793457,-0.59906,-0.0515747,-0.0088501,-0.132446
166,1,0.0164795,0.0262451,0.0250244,0.0219727,0.0180054,0.00213623,0.0131226,0.027771,0.0259399,0.65033,-0.0500488,-0.020752,-0.115051
166,2,0.015564,0.0195312,0.00915527,-0.0485229,0.0289917,-0.0375366,0.0543213,0.022583,0.0216675,0.766602,-0.088501,0.0421143,-0.157166
166,3,0.0213623,0.0378418,0.0335693,0.0131226,0.00854492,-0.0274658,0.015564,0.0222778,0.0787354,0.300598,-0.0375366,0.0616455,-0.174866
166,4,0.0283813,0.0253296,0.0222778,-0.0152588,0.0250244,-0.0408936,0.0161743,0.0369263,0.0915527,0.688782,-0.039978,0.020752,-0.235291
167,0,0.0152588,0.0363159,0.0177002,0.000610352,0.032959,-0.0216675,0.0128174,0.0292969,0.090332,0.636902,-0.0494385,0.0112915,-0.215454
167,1,0.0305176,0.0308228,0.0186157,-0.000305176,0.0338745,-0.057373,0.0158691,0.0283813,0.0823975,0.588684,-0.0512695,0.0354004,-0.191345
167,2,0.0210571,0.0286865,0.0268555,-0.000610352,0.027771,-0.0738525,0.0427246,0.0259399,0.14801,0.567017,-0.0396729,-0.0228882,-0.183105
167,3,0.0283813,0.0286865,-0.00274658,0.00762939,-0.0201416,-0.0485229,0.0247192,0.0796509,0.0787354,0.498352,-0.0286865,0.0524902,-0.187683
167,4,0.0363159,0.0390625,0.0204468,0.00427246,0.00854492,-0.0219727,0.027771,0.0308228,0.0396729,0.410461,-0.0238037,-0.000915527,-0.181885
168,0,0.0582886,0.0317383,0.0170898,0.0115967,0.0143433,-0.00518799,0.0369263,0.0192261,0.0775146,-0.0546265,-0.0506592,0.0274658,-0.215454
168,1,0.0311279,0.0259399,0.0259399,0.0106812,0.0149536,0.0244141,0.0244141,0.0140381,0.0622559,0.393677,-0.00244141,0.032959,-0.227356
168,2,0.022583,0.032959,0.0219727,0.0323486,0.0134277,0.0515747,0.012207,0.0369263,0.0564575,0.37262,-0.0234985,0.0216675,-0.195923
168,3,0.0241089,0.0137329,0.0170898,0.0152588,0.0164795,0.0723267,-0.00396729,0.0296021,0.0759888,0.429993,-0.0143433,0.0189209,-0.16571
168,4,0.0402832,0.0100708,0.0256348,-0.0219727,0.0204468,0.0360107,-0.0363159,0.0305176,0.0546265,0.256042,-0.0131226,0.0213623,-0.201416
169,0,0.0262451,0.0372314,0.0320435,0.0280762,0.0204468,0.00671387,0.0106812,0.0183105,0.0680542,0.2771,-0.0149536,0.0323486,-0.183105
169,1,0.0323486,0.0180054,0.0320435,0.0274658,0.00610352,-0.010376,0.0128174,0.0244141,0.0149536,0.241089,-0.0308228,-0.0170898,-0.154419
169,2,0.0302124,0.0115967,0.0231934,-0.0366211,0.0354004,0.0262451,0.0234985,0.0149536,0.0421143,0.107422,-0.0323486,0.0408936,-0.123901
169,3,0.0305176,0.0177002,-0.022583,0.0350952,0.0430298,0.0241089,-0.00762939,0.0201416,0.050354,0.19165,-0.0411987,0.0344849,-0.102539
169,4,0.0344849,0.022583,0.0167847,0.0405884,0.0311279,0.027771,0.00915527,0.0158691,0.0378418,-0.853882,-0.0357056,0.0549316,-0.0881958
170,0,0.0299072,-0.0521851,0.0234985,0.0332642,0.0357056,0.0619507,0.0268555,0.0259399,0.0378418,-2.99683,-0.0286865,0.0323486,-0.10437
170,1,0.0259399,0.0128174,0.0210571,0.0189209,0.0619507,0.0650024,0.0143433,-0.00518799,0.0274658,-0.806274,-0.0469971,0.0219727,-0.106201
170,2,0.0360107,0.0491333,0.010376,0.0280762,0.0213623,0.0845337,0.0247192,0.0201416,0.0286865,-0.581055,-0.0369263,0.0408936,-0.0674438
170,3,0.0274658,0.0302124,0.0222778,0.0210571,0.0338745,0.0637817,0.0100708,0.00793457,0.0296021,-1.65558,-0.0350952,0.0314331,-0.0393677
170,4,0.0363159,0.0735474,0.0280762,0.0216675,-0.043335,0.0372314,0.0119019,-0.0164795,-0.0100708,-2.5943,-0.0430298,0.0140381,-0.0271606
171,0,0.0302124,0.0192261,-0.0323486,0.0308228,0.00518799,0.0396729,-0.0109863,0.0198364,0.0222778,-1.82678,-0.0424194,0.0268555,-0.00671387
171,1,0.0158691,0.0283813,0.0262451,0.0360107,0.00854492,0.0415039,-0.045166,0.0244141,0.0201416,-1.9873,-0.0369263,0.0469971,-0.0326538
171,2,0.0210571,0.0234985,0.0262451,-0.00427246,0.022583,0.043335,0.0332642,0.0158691,0.00762939,0.414124,-0.0253296,0.0311279,-0.039978
171,3,0.0253296,0.0552368,0.020752,0.0213623,-0.0296021,0.022583,0.0186157,0.0473022,0.022583,0.934448,-0.0289917,0.0369263,-0.03479
171,4,0.00518799,0.0402832,0.0289917,0.0268555,0.0280762,0.0137329,0.0250244,0.0231934,0.0125122,1.07086,-0.0125122,0.0170898,-0.0134277
172,0,0.0314331,0.0234985,0.0335693,0.00152588,0.0180054,0.015564,0.0344849,0.00549316,0.0390625,0.85968,-0.0332642,0.0393677,-0.00488281
172,1,0.0131226,0.0247192,0.045166,0.0234985,0.0256348,0.0192261,0.0289917,0.0131226,0.0320435,1.67603,-0.0445557,0.0238037,0.0476074
172,2,0.0292969,0.0354004,0.00366211,0.032959,0.0140381,-0.0192261,0.0189209,0.00305176,0.0390625,0.878906,-0.0296021,0.0387573,-0.0170898
172,3,0.0424194,0.0338745,0.0280762,0.0335693,0.0140381,-0.0158691,0.0119019,0.0323486,0.0238037,1.31165,-0.0320435,0.0283813,-0.0119019
172,4,0.0274658,0.020752,0.0299072,0.0357056,0.00976562,-0.027771,0.0109863,0.020752,0.0213623,1.14349,-0.0292969,0.0308228,0.0219727
173,0,0.0244141,0.0402832,0.0558472,0.0305176,0.0265503,-0.0146484,-0.00183105,0.00732422,0.012207,1.32751,-0.0372314,0.0296021,0.00640869
173,1,0.0411987,0.0305176,0.0317383,0.0158691,0.00854492,-0.00793457,0.00396729,0.0128174,0.017395,0.631104,-0.0259399,0.010376,0.0320435
173,2,0.0210571,0.0497437,0.022583,0.0170898,0.0698853,-0.00427246,0.0296021,0.0241089,0.00274658,1.04767,-0.0326538,0.0344849,0.00854492
173,3,0.0408936,0.032959,0.0259399,0.0247192,0.017395,-0.0247192,-0.0274658,0.00854492,0.0161743,1.07513,-0.0280762,0.0250244,0.00518799
173,4,0.0363159,0.0259399,0.0143433,0.0262451,0.0152588,-0.00854492,0.0198364,0.015564,0.0195312,0.975647,-0.0344849,-0.0131226,-0.000610352
174,0,0.038147,0.0405884,0.0479126,0.0283813,0.0219727,0.0143433,0.0128174,0.0106812,0.0299072,0.886536,-0.0390625,0.0338745,-0.0469971
174,1,0.00335693,0.00915527,0.0198364,0.0314331,0.012207,0.0146484,0.022583,0.00518799,0.0250244,0.8078,-0.0164795,0.0250244,-0.062561
