Devices
1000
,,Myon - Voltage,,,,,,,,,,,,,
Frame,Sub Frame,GC-M,TA,SOL,VM,VL,RF,BF,ST,GLUT-M,EO,Gracilis,GC-L,Semimembranosus
,,V,V,V,V,V,V,V,V,V,V,V,V,V
1,0,0.0143433,0.0219727,0.0234985,0.0592041,0.0369263,0.00671387,1.07361,0.0137329,0.0476074,0.00732422,-0.0192261,0.0189209,0.00152588
1,1,0.0146484,0.00183105,0.0311279,-0.00244141,0.0320435,0.0772095,0.844421,0.0231934,0.0485229,0.0250244,-0.0250244,0.00854492,0.119934
1,2,0.0140381,0.0128174,0.0253296,-0.022583,0.0430298,0.00305176,0.653076,0,0.0479126,0.0234985,0.0210571,0.0088501,0.0134277
1,3,0.00610352,0.0112915,0.0320435,0.00427246,0.0424194,0.0369263,0.486145,0.0186157,0.072937,0.0161743,-0.0305176,0.0473022,-0.00366211
1,4,0.015564,0.00183105,0.0204468,-0.0201416,0.027771,0.027771,0.23468,0.0265503,0.0109863,0.0314331,-0.0195312,0.0183105,-0.0354004
2,0,0.00335693,0.00335693,0.0152588,-0.0143433,0.0106812,0.012207,0.0671387,0.017395,0.0360107,0.0204468,-0.0119019,0.0128174,-0.0378418
2,1,0.0125122,0.0201416,0.0140381,-0.0134277,0.0140381,0.022583,0.0927734,0.0180054,0.0341797,0.0283813,-0.0186157,0.00854492,0.0344849
2,2,-0.0411987,0.0415039,0.0180054,-0.0421143,0.0326538,0.0247192,0.0305176,0.00671387,0.0448608,0.0466919,0.0296021,0.0161743,-0.0131226
2,3,0.00213623,0.0286865,-0.0201416,-0.0283813,0.0216675,-0.0253296,-0.147095,0.015564,0.010376,0.0241089,-0.0204468,0.00793457,0.00518799
2,4,-0.00793457,0.0485229,0.0241089,-0.0201416,0.0280762,0.0256348,-0.185242,0.0180054,0.0177002,0.0335693,-0.0216675,0.0308228,-0.00518799
3,0,0.0180054,-0.0204468,0.0323486,-0.0320435,0.0143433,0.0250244,-0.270386,0.0213623,0.0149536,0.0241089,-0.017395,-0.0088501,-0.00488281
3,1,0.027771,0.0469971,0.0213623,-0.0210571,0.0149536,0.0140381,-0.342712,0.0231934,0.0219727,0.0201416,-0.0265503,0.0268555,-0.00335693
3,2,0.0170898,0.0180054,-0.0186157,-0.0109863,0.0262451,0.0497437,-0.432129,0.0369263,0.000610352,0.0149536,-0.0250244,0.0634766,-0.0253296
3,3,0.0161743,0.022583,0.0305176,-0.000915527,0.00823975,0.010376,-0.458374,0.0338745,0.0701904,0.0125122,-0.0247192,0.0204468,0.00640869
3,4,-0.00640869,0.0167847,0.0106812,-0.0265503,0.032959,0.0469971,-0.522461,0.0357056,0.0286865,-0.0100708,-0.0231934,0.0128174,0.0125122
4,0,0.0286865,0.012207,0.0308228,0.0012207,0.0216675,0.0390625,-0.568542,0.0534058,0.0183105,0.0357056,-0.0216675,0.0125122,0.0109863
4,1,0.0137329,0.0372314,0.022583,-0.00762939,0.0247192,0.0228882,-0.576172,0.03479,0.0253296,0.0302124,-0.0164795,0.00762939,0.0152588
4,2,0.0338745,0.0189209,0.0259399,-0.0106812,0.0158691,0.020752,-0.65979,0.0427246,0.0289917,0.0286865,0.0106812,0.0167847,0.00823975
4,3,0.0109863,0.00793457,-0.000305176,0.0189209,0.0262451,-0.0088501,-0.837708,-0.0354004,0.0259399,0.0140381,0.010376,0.0268555,0.0567627
4,4,0.022583,0.0143433,0.0164795,-0.00793457,0.000610352,0.0402832,-0.85144,0.020752,0.0363159,0.0305176,-0.045166,0.0143433,0.0430298
5,0,0.06073,0.00976562,0.017395,0.0292969,0.0161743,0.0161743,-0.959167,0.0292969,0.0228882,0.0823975,-0.00183105,0.0177002,-0.0180054
5,1,0.0299072,0.0198364,0.0271606,-0.00549316,0.00366211,-0.000610352,-1.25458,0.0100708,0.0448608,0.0244141,-0.0201416,0.0421143,0.0292969
5,2,0.0262451,0.00305176,0.0125122,0.00244141,-0.00183105,0.00244141,-1.14075,0.027771,0.0772095,0.038147,-0.0216675,0.0112915,-0.00732422
5,3,0.00640869,0.00183105,0.00946045,0.0305176,0.0234985,0.017395,-1.49628,0.0408936,0.0360107,0.0485229,-0.0201416,0.0210571,0.0204468
5,4,0.0296021,0.00732422,0.0134277,0.0149536,0.0213623,-0.00335693,-0.643005,0.0204468,0.0283813,0.0299072,-0.0219727,-0.00396729,-0.00701904
6,0,0.0152588,0.0109863,0.0271606,0.00976562,0.0253296,0.020752,-0.458069,0.017395,-0.015564,0.0308228,-0.0219727,0.0149536,-0.00915527
6,1,0.010376,0.0146484,-0.0445557,0.00213623,0.0286865,0.0149536,-0.984802,0.022583,0.0271606,0.0466919,-0.0314331,0.0247192,-0.0204468
6,2,0.0311279,0.0317383,-0.0216675,0.0210571,0.015564,0.0375366,-1.37115,0.022583,0.0622559,0.0360107,-0.0231934,0.010376,0.129089
6,3,0.0335693,0.0137329,0.00549316,0.00640869,0.0100708,0.0619507,-0.696716,0.0134277,0.0241089,0.032959,-0.0253296,0.0189209,-0.00579834
6,4,0.0296021,0.0323486,-0.000915527,0.00976562,0.0170898,0.0302124,-0.636902,0.0119019,0.0393677,0.0274658,-0.0320435,0.0112915,0.00762939
7,0,0.0427246,0.0509644,0.0222778,0.0152588,0.0180054,0.0158691,-0.635071,0.0143433,0.0244141,0.015564,-0.0369263,0.0265503,0.00396729
7,1,0.0177002,0.0247192,0.0247192,-0.0152588,0.0119019,0.00183105,-0.664978,0.0848389,0.0219727,0.0390625,-0.0515747,0.0244141,0.0259399
7,2,0.0366211,0.0268555,-0.00274658,0.032959,0.00305176,0.0250244,-0.39856,0.0201416,0.0448608,0.0540161,-0.0357056,0.020752,-0.0244141
7,3,0.0289917,-0.0170898,0.010376,0.020752,0.0628662,0.00579834,-0.78186,0.0286865,0.0317383,0.043335,-0.0372314,0.0146484,0.218506
7,4,0.0332642,0.0427246,0.0152588,0.0286865,0.0189209,-0.00488281,-0.474548,0.022583,0.0219727,0.038147,-0.0311279,-0.0140381,0.331116
8,0,0.0323486,0.0341797,-0.0228882,0.0323486,0.0140381,0.00244141,-0.429993,0.00823975,0.0323486,0.0372314,-0.0259399,0.0109863,0.0869751
8,1,0.0192261,0.0149536,0.0128174,0.0308228,0.00671387,-0.00976562,-0.483398,0.0402832,0.0335693,0.0360107,-0.039978,0.0271606,-0.0665283
8,2,0.0161743,0.0195312,0.00823975,0.032959,0.0204468,-0.0167847,-0.548706,0.0201416,0.0262451,0.0271606,-0.039978,0.0473022,-0.0476074
8,3,0.0363159,-0.00305176,0.0170898,0.0354004,0.0210571,0.0115967,-0.563965,0.0259399,0.03479,0.0311279,-0.0222778,0.00274658,0.0888062
8,4,0.0564575,0.0137329,0.0140381,0.045166,0.0088501,0.0180054,-0.796204,0.0268555,0.0259399,0.0234985,-0.027771,0.0338745,0.0115967
9,0,0.0265503,0.010376,0.00305176,0.0512695,0.00793457,0.0494385,-0.56427,0.0189209,0.0268555,0.0982666,-0.0305176,0.0274658,-0.038147
9,1,0.012207,-0.0109863,0.00396729,0.0482178,0.0192261,0.116577,-0.861816,0.0244141,0.0408936,0.0335693,-0.0189209,0.0332642,0.038147
9,2,0.0390625,0.0198364,0.0268555,0.043335,0.0177002,0.108643,-0.365295,0.0283813,0.0704956,0.0393677,-0.0125122,0.0320435,0.0845337
9,3,0.0183105,-0.012207,0.0152588,0.0521851,0.0198364,0.0674438,-0.304871,0.03479,0.012207,0.0357056,-0.0402832,0.0741577,0.363464
9,4,0.0326538,0.00396729,0.00610352,0.0512695,-0.00183105,0.0671387,-0.37384,0.0302124,0.0256348,0.0161743,-0.0320435,0.0363159,0.152588
10,0,-0.000305176,0.00610352,0.0283813,0.0366211,-0.00915527,0.0509644,-0.680237,0.0296021,0.0262451,0.0195312,-0.0256348,0.0372314,0.0213623
10,1,0.0219727,0.0674438,0.0375366,0.0561523,0.0088501,0.0137329,-0.406494,0.00823975,0.0170898,0.0250244,-0.0271606,0.0323486,0.0439453
10,2,0.0204468,0.0262451,0.0198364,0.0527954,0.00335693,0.0991821,-0.462952,0.0436401,0.0445557,0.0253296,-0.0366211,0.0219727,-0.118103
10,3,0.0332642,0.0283813,0.0195312,0.0457764,0.00457764,0.0317383,-0.586243,0.0222778,0.0228882,0.0338745,-0.0360107,0.0189209,0.424805
10,4,0.0259399,0.0253296,0.000610352,0.0686646,0.0128174,0.0274658,-0.351868,0.017395,0.0323486,0.0372314,-0.0219727,0.0369263,0.659485
11,0,0.0302124,0.0326538,0.0143433,0.0613403,0.0149536,0.0125122,-0.392151,0.050354,0.0195312,0.0299072,-0.0408936,0.0195312,0.602722
11,1,0.03479,0.0119019,0.0222778,0.0537109,0.0204468,-0.00457764,-0.599365,0.0344849,0.0189209,0.0576782,-0.0259399,0.0369263,0.694275
11,2,-0.0350952,0.000610352,-0.00518799,0.0793457,0.0177002,-0.0128174,-0.939941,0.0262451,0.0360107,0.0338745,-0.0271606,0.0296021,0.0149536
11,3,0.0262451,0.0259399,0.0137329,0.0656128,0.0106812,0.0646973,-0.166626,0.0283813,0.0216675,0.0396729,-0.0302124,0.0238037,-0.391541
11,4,0.0323486,0.022583,0.022583,0.0631714,0.0338745,-0.0213623,-0.205078,0.0143433,0.0314331,0.043335,-0.00244141,0.0213623,-0.371704
12,0,0.027771,0.0265503,0.0378418,0.0665283,0.0845337,-0.0463867,-0.306396,0.0259399,0.0405884,0.0445557,-0.0354004,0.0289917,-0.352173
12,1,0.0286865,0.0149536,0.0283813,0.0564575,0.0112915,0.0100708,-0.241089,0.022583,-0.00823975,0.0424194,-0.0302124,0.0335693,-0.297241
12,2,0.0210571,0.0177002,0.0567627,0.0683594,0.0204468,-0.0598145,-0.389099,0.0332642,0.0405884,0.0222778,-0.038147,0.0250244,0.101624
12,3,0.0259399,0.0170898,0.0598145,0.0524902,0.038147,-0.0515747,-0.420532,0.0106812,0.0299072,0.0396729,-0.0314331,0.0378418,0.0247192
12,4,0.0332642,0.0213623,0.0250244,0.0640869,0.020752,-0.0485229,-0.125122,0.0408936,0.0421143,0.0436401,-0.0375366,0.027771,0.0311279
13,0,0.00793457,0.00976562,0.0170898,-0.00762939,0.0234985,-0.0363159,-0.132751,0.0143433,0.0354004,0.0460815,-0.0280762,0.0112915,-0.212402
13,1,0.0283813,0.00732422,0.0384521,0.0500488,0.0344849,-0.0344849,-0.210876,0.0195312,0.0448608,0.0418091,-0.0375366,0.0152588,-0.253601
13,2,0.0378418,-0.0262451,0.00335693,0.0482178,0.0323486,-0.00305176,-0.170593,0.0354004,0.0314331,0.0262451,-0.0491333,0.0445557,-0.257263
13,3,0.0375366,0.043335,0.0271606,0.0656128,0.0350952,0.0146484,-0.313416,0.0256348,0.0167847,0.0598145,-0.0421143,0.043335,-0.216675
13,4,0.038147,0.0408936,0.0088501,0.0540161,-0.0100708,0.012207,-0.142212,0.0259399,0.0189209,0.0299072,-0.0616455,0.0457764,-0.187683
14,0,0.0259399,0.0360107,0.000915527,0.0549316,0.0143433,0.067749,-0.139771,0.0396729,0.0241089,0.0201416,-0.0457764,0.055542,-0.170898
14,1,0.0360107,0.0317383,0.0161743,0.0491333,0.0238037,0.108643,-0.132751,0.03479,0.0219727,0.0466919,-0.0222778,0.0280762,-0.166931
14,2,0.0302124,0.0436401,0.0158691,0.0680542,0.00183105,0.131531,-0.145569,0.0167847,0.0125122,0.0216675,0.000610352,0.0457764,-0.144653
14,3,0.0216675,0.0140381,0.0152588,0.065918,-0.000915527,0.161743,-0.134583,0.0378418,0.0460815,0.0378418,-0.0296021,0.0643921,-0.117493
14,4,0.0357056,0.0424194,0.0253296,0.085144,-0.0439453,0.122986,-0.153809,0.0125122,0.0134277,-0.00183105,-0.0241089,0.0241089,-0.0949097
15,0,0.0210571,0.0405884,0.0198364,0.0793457,-0.00579834,0.0549316,-0.137329,0.0119019,0.0216675,0.0180054,-0.0430298,0.0497437,-0.0848389
15,1,0.039978,0.010376,0.0192261,0.0411987,0.0012207,0.0268555,-0.149231,0.0344849,0.000610352,0.0424194,-0.0527954,0.0268555,-0.0497437
15,2,0.038147,0.0177002,0.00854492,0.0827026,-0.0128174,-0.00610352,-0.149841,0.0253296,0.0143433,0.015564,-0.0427246,0.0384521,-0.0808716
15,3,0.0234985,0.0354004,0.0198364,0.10498,-0.0265503,-0.0314331,-0.189819,0.0320435,0.0186157,0.0759888,-0.0454712,0.0195312,-0.0515747
15,4,0.0177002,0.0747681,0.0125122,0.0759888,-0.0546265,-0.0418091,-0.157166,0.000305176,0.032959,0.0415039,-0.0408936,0.0408936,-0.03479
16,0,0.0283813,0.027771,0.0384521,0.0878906,0.0119019,0.00427246,-0.163574,0.00183105,0.00305176,0.0134277,-0.0238037,0.0390625,0.0268555
16,1,0.0344849,0.0158691,0.0354004,0.0582886,0.0134277,0.0125122,-0.148621,0.0228882,-0.0088501,0.0292969,-0.0183105,0.0482178,-0.0341797
16,2,0.0268555,0.00823975,0.0317383,0.0564575,0.0198364,0.0430298,-0.153503,0.0161743,0.0219727,0.0268555,-0.0320435,-0.0143433,-0.00854492
16,3,0.0265503,0.03479,0.032959,0.0588989,0.0106812,0.0323486,-0.138855,0.0231934,0.00549316,0.0112915,-0.038147,0.0299072,0.00366211
16,4,0.0393677,0.0610352,0.0183105,0.00549316,0.0311279,0.0631714,-0.109253,0.020752,0.0186157,-0.000305176,-0.0231934,0.0115967,0.0552368
17,0,0.027771,0.0247192,0.012207,0.0424194,0.03479,0.0366211,-0.140076,0.00762939,0.0204468,0.0195312,-0.0283813,0.0354004,0.00305176
17,1,0.0158691,0.0286865,0.0213623,0.045166,0.0204468,0.0549316,-0.164795,0.015564,0.0265503,0.0534058,-0.0375366,0.038147,-0.0177002
17,2,0.0234985,0.045166,0.0231934,0.0469971,0.00762939,0.0897217,-0.144958,0.0259399,0.0195312,0.0192261,-0.0357056,0.0299072,0.0222778
17,3,0.0259399,0.0369263,0.0216675,0.0750732,0.0250244,0.0753784,-0.134888,0.0299072,0.00854492,0.0204468,-0.0375366,0.032959,0.0247192
17,4,0.0292969,0.0350952,0.00732422,0.0421143,0.0192261,0.0662231,-0.125122,0.0485229,0.0100708,0.039978,-0.0137329,0.0534058,0.0366211
18,0,0.0286865,0.0421143,0.0332642,0.0366211,0.0219727,0.0604248,-0.119324,0.0408936,0.00640869,0.0338745,-0.0186157,0.0430298,0.0274658
18,1,0.0369263,-0.0213623,0.0219727,0.0512695,-0.0515747,0.0424194,-0.133667,-0.0390625,0.0210571,0.0350952,-0.0317383,0.0338745,0.0292969
18,2,0.0183105,0.0241089,0.00518799,0.0460815,0.00701904,0.00274658,-0.126343,0.0210571,0.00640869,0.039978,-0.0286865,0.0228882,0.0341797
18,3,0.0393677,0.00640869,0.0216675,0.045166,0.0170898,0.0219727,-0.129089,0.0390625,0.0149536,-0.017395,-0.0372314,0.032959,0.038147
18,4,0.0286865,0.0201416,0.0283813,0.0543213,0.0100708,0.0125122,-0.120239,0.0186157,0.0289917,0.0469971,-0.0335693,0.088501,0.0424194
19,0,0.0698853,0.0143433,0.03479,0.0457764,0.00854492,-0.000305176,-0.110779,0.0164795,0.0012207,0.0408936,-0.015564,0.0317383,0.0314331
19,1,0.0161743,0.0231934,0.0250244,0.0369263,-0.0253296,0.0189209,-0.106812,0.00457764,0.0216675,0.00549316,-0.0204468,0.0344849,0.0198364
19,2,0.020752,0.0286865,0.0485229,0.0531006,0.00244141,0.0140381,-0.108032,0.00976562,0.0146484,0.0192261,-0.0302124,0.017395,0.0247192
19,3,0.0457764,0.0186157,-0.00183105,0.0299072,0.0238037,-0.027771,-0.0985718,0.0198364,0.0213623,0.0396729,-0.0274658,0.0210571,0.0939941
19,4,0.0317383,0.0216675,0.0344849,0.0234985,0.0204468,0.0109863,-0.0769043,0.000305176,0.0201416,0.012207,-0.0204468,0.0427246,0.114441
20,0,0.0311279,0.0250244,0.0222778,0.0189209,0.00793457,0.0241089,-0.0775146,0.0201416,0.00793457,0.00305176,-0.0457764,0.0448608,0.204163
20,1,0.0326538,0.0369263,0.0610352,0.0183105,0.00793457,0.0274658,-0.0872803,0.00701904,0.00457764,0.0332642,-0.0253296,0.0411987,0.229492
20,2,0.0222778,0.0247192,0.032959,0.055542,0.0250244,-0.00213623,-0.0756836,0.0424194,0.0231934,0.0241089,-0.0350952,0.0314331,0.19104
20,3,0.0396729,0.0265503,0.0158691,0.0183105,-0.0137329,0.00732422,-0.06073,0.0454712,0.0344849,0.0115967,-0.0271606,0.0366211,0.198059
20,4,0.0332642,0.0253296,0.0408936,0.00823975,0.0259399,-0.00366211,-0.0576782,0.0289917,0.0146484,0.0280762,-0.0323486,0.0289917,0.163269
21,0,0.0247192,0.0195312,-0.000915527,0.00762939,0.0384521,0.0344849,-0.055542,0.0241089,0.0216675,0.0268555,-0.0363159,0.0241089,0.124817
21,1,0.0323486,0.0363159,0.0363159,0.00213623,0.0204468,-0.00518799,-0.0366211,0.0131226,0.0201416,0.0296021,-0.0302124,0.0622559,0.0689697
21,2,0.0283813,0.0411987,0.0418091,-0.00366211,0.0418091,-0.0262451,-0.0527954,0.0158691,0.0311279,0.0222778,-0.0302124,0.0479126,0.144348
21,3,0.022583,0.0341797,0.0473022,-0.0125122,0.0302124,-0.00244141,-0.0473022,0.0250244,0.0088501,0.0231934,-0.0363159,0.0289917,0.142822
21,4,0.0476074,0.0378418,0.0146484,0.000610352,0.0384521,-0.00732422,-0.0497437,0.0201416,0.0210571,0.00518799,-0.0442505,0.0241089,0.160522
22,0,0.0720215,0.0427246,0.0271606,-0.0149536,0.0390625,0.0012207,-0.0408936,0.0119019,0.0244141,0.0216675,-0.0308228,0.038147,0.0393677
22,1,0.0250244,0.0427246,0.0357056,-0.0222778,0.0213623,-0.0167847,-0.0485229,0.0198364,0.0479126,0.0210571,-0.015564,0.0354004,0.038147
22,2,0.0234985,0.0335693,0.0250244,-0.0231934,0.0570679,-0.038147,-0.0177002,0.0146484,0.0256348,0.0201416,-0.0744629,0.0253296,0.175781
22,3,0.0338745,0.03479,0.0216675,-0.0128174,0.0390625,-0.0427246,-0.0201416,0.0164795,0.0106812,0.0244141,-0.0262451,0.0372314,0.195312
22,4,0.015564,0.0308228,0.0210571,-0.0100708,0.0537109,-0.0320435,-0.0167847,0.0213623,0.0292969,0.0125122,-0.038147,0.0253296,0.195923
23,0,0.017395,0.0378418,0.0201416,0.0012207,0.0527954,-0.0100708,-0.0302124,0.0259399,0.0405884,-0.00427246,-0.0109863,0.022583,0.138855
23,1,0.0189209,0.0286865,0.0280762,0.00762939,0.0366211,0.00427246,-0.0170898,0.0112915,0.0396729,-0.0204468,-0.0289917,0.0180054,0.0942993
23,2,0.0473022,0.0424194,0.0317383,0.00366211,0.0192261,0.0112915,-0.0100708,0.00335693,0.03479,0.0201416,-0.0164795,0.0442505,0.180054
23,3,0.0195312,0.0241089,0.0167847,0.00579834,0.0350952,0.0109863,0.012207,0.0134277,0.0286865,0.0286865,-0.0292969,0.0888062,0.184937
23,4,0.0405884,0.032959,0.0280762,0.00396729,0.03479,0.00823975,-0.00488281,0.0149536,0.0448608,0.0146484,-0.0210571,0.0561523,0.140991
24,0,0.0250244,0.03479,0.0189209,0,0.0253296,0.0314331,-0.00518799,0.0271606,-0.0439453,0.0149536,-0.0463867,0.0637817,0.106812
24,1,0.0259399,0.032959,0.0363159,-0.00793457,0.0177002,0.00366211,0.00427246,0.0137329,0.027771,0.0408936,-0.0186157,0.032959,0.13092
24,2,0.0259399,0.0244141,0.020752,-0.0201416,-0.0384521,0.0180054,0.0088501,0.0180054,-0.00305176,0.015564,-0.0213623,0.0326538,0.184326
24,3,0.0271606,0.017395,0.0314331,-0.0250244,-0.0518799,0.00305176,0.055542,0.0125122,0.00762939,-0.0177002,-0.0115967,0.0180054,0.200195
24,4,0.0250244,0.0149536,0.0323486,-0.0369263,-0.0299072,0.00854492,0.00457764,0.0177002,0.0149536,0.0228882,-0.0524902,0.0149536,0.1297
25,0,0.0344849,0.0164795,0.0393677,0.0180054,-0.0827026,0.00610352,-0.0411987,0.0161743,0.0140381,0.0674438,-0.020752,0.0201416,0.0662231
25,1,0.0262451,0.0299072,0.0436401,-0.0622559,-0.14801,0.0177002,0.0204468,-0.015564,0.010376,0.00610352,-0.00976562,-0.00457764,0.103149
25,2,0.0250244,0.0616455,0.0250244,-0.0531006,-0.30365,0.0198364,0.0250244,0.00152588,0.015564,-0.0012207,-0.0314331,0.0250244,0.0469971
25,3,0.0299072,0.0335693,0.0424194,-0.062561,-0.363159,0.0640869,0.0213623,0.00762939,0.00701904,0.000915527,-0.0222778,0.0222778,0.0622559
25,4,0.0820923,0.0314331,0.0289917,-0.0814819,-0.130615,0.0604248,-0.0262451,0.015564,0.0253296,0.065918,-0.0158691,0.0201416,0.0643921
26,0,0.0354004,0.0296021,0.0357056,-0.0772095,-0.181274,0.0808716,0.0088501,-0.0012207,0.0167847,0.0241089,-0.00732422,0.0234985,0.128174
26,1,0.0216675,0.020752,0.0454712,-0.0622559,-0.045166,0.0665283,-0.0012207,0.0192261,0.00671387,0.0686646,-0.00579834,0.0402832,0.0720215
26,2,0.0186157,0.0216675,0.0262451,-0.00457764,0.0140381,0.0613403,0.0540161,0.0244141,0.0192261,0.00854492,-0.0259399,0.017395,-0.0457764
26,3,0.0265503,0.0314331,0.0283813,-0.045166,0.0561523,0.0256348,-0.0131226,0.00854492,0.0177002,0.0112915,-0.0210571,0.0250244,0.020752
26,4,0.0292969,0.0167847,0.0384521,-0.0790405,0.0912476,0.00396729,0.0320435,0.0143433,0.0296021,0.0195312,-0.017395,0.0326538,0.0366211
27,0,0.0286865,0.0253296,0.0354004,-0.0531006,0.143127,0.00152588,0.0509644,0.00274658,0.067749,0.0198364,-0.0167847,0.0283813,0.0137329
27,1,0.0268555,0.017395,0.0335693,-0.032959,0.371704,-0.017395,0.0323486,0.0445557,0.000305176,0.00579834,-0.0137329,0.0265503,0.0527954
27,2,0.0341797,0.0186157,0.0393677,-0.0686646,0.202332,-0.00396729,0.0543213,0.00976562,0.0119019,0.00671387,-0.0134277,0.0189209,-0.0100708
27,3,0.0311279,0.012207,0.0366211,-0.0683594,0.297852,-0.00793457,0.0408936,-0.00549316,0.00946045,0.00366211,-0.0244141,0.0274658,-0.0247192
27,4,0.0247192,-0.0366211,0.0286865,-0.0653076,0.361023,0.00518799,0.0521851,-0.0350952,0.032959,0.0308228,-0.0210571,0.0164795,-0.0445557
28,0,0.0222778,-0.0244141,0.017395,-0.0509644,0.267029,0,0.0473022,0.00640869,0.0152588,-0.0088501,-0.0222778,-0.038147,-0.0253296
28,1,0.0256348,-0.00671387,0.0299072,-0.0488281,0.240784,-0.00244141,0.0543213,0.0146484,-0.00244141,0.00854492,-0.0204468,0.0128174,-0.022583
28,2,0.0366211,-0.00762939,0.0283813,-0.0421143,0.328979,0.0299072,0.0543213,0.0143433,0.0137329,0.0186157,-0.010376,0.0201416,-0.0204468
28,3,0.0259399,-0.00976562,0.0372314,-0.0360107,0.263062,0.0363159,0.0622559,0.0231934,0.0167847,0.0283813,-0.012207,0.0231934,-0.0354004
28,4,0.0231934,-0.00213623,0.0305176,-0.0231934,0.265808,0.0421143,0.0540161,0.0167847,0.0177002,0.0262451,-0.0106812,0.0189209,-0.0390625
29,0,0.0280762,0.0119019,0.0292969,-0.0411987,0.240784,0.0369263,0.0671387,0.00640869,0.012207,0.0238037,-0.0109863,0.0299072,-0.195618
29,1,0.00518799,0.0604248,-0.0299072,-0.0332642,0.1651,0.0515747,0.0857544,0.0201416,0.0164795,-0.00488281,-0.00915527,0.00976562,-0.199585
29,2,0.0183105,0.0622559,0.00854492,-0.00854492,0.00427246,-0.0128174,0.0527954,0.0119019,0.0402832,0.0106812,-0.027771,0.0177002,-0.0213623
29,3,0.0234985,0.0769043,0.0338745,-0.00762939,-0.105286,-0.0326538,0.0527954,0.00183105,0.0213623,0.0192261,-0.0500488,0.0274658,-0.0231934
29,4,0.0244141,0.0585938,0.0350952,-0.00244141,-0.00671387,-0.0341797,0.0942993,0.0195312,-0.00335693,-0.00579834,-0.0271606,0.06073,-0.0897217
30,0,0.0268555,0.0415039,0.0350952,-0.0106812,-0.0778198,-0.0704956,0.0488281,0.0106812,0.0137329,0.0152588,-0.0140381,0.0354004,-0.173645
30,1,0.0283813,0.00427246,0.0308228,0.00549316,-0.0256348,-0.0390625,0.065918,0.00823975,0.0302124,0.0140381,-0.0259399,0.0292969,-0.101013
30,2,0.0390625,0.0531006,-0.0274658,0.0183105,-0.0787354,-0.0320435,0.0747681,0.0234985,0.0183105,0.00640869,-0.017395,0.0253296,-0.0976562
30,3,0.0189209,0.0537109,0.0323486,0.0170898,-0.0622559,-0.0204468,0.0741577,0.0100708,0.00305176,0.0540161,-0.0106812,0.0256348,0.0473022
30,4,0.0137329,0.045166,0.0823975,0.010376,-0.0534058,-1.90308,0.0744629,0.00915527,0.0152588,0.0164795,-0.0186157,0.0195312,0.0552368
31,0,0.0296021,0.0375366,0.0363159,0.0167847,-0.0512695,-2.74109,0.0845337,0.00457764,0.00579834,0.0286865,-0.0152588,0.015564,0.162659
31,1,0.0305176,0.0296021,0.0332642,0.0308228,-0.0323486,3.32153,0.067749,0.0149536,0.0012207,0.00976562,-0.0112915,0.0146484,0.155334
31,2,-0.0213623,-0.000915527,0.038147,0.0363159,-0.0714111,3.27667,0.0756836,0.0274658,0.0125122,0.0216675,-0.0228882,0.0186157,-0.329285
31,3,0.0247192,-0.00335693,0.0357056,0.0320435,-0.0527954,3.17505,0.0735474,0.0256348,0.0280762,-0.000915527,-0.0311279,-0.0125122,-0.317993
31,4,0.0125122,-0.012207,0.0265503,0.032959,-0.0274658,3.10333,0.0735474,0.0115967,0.020752,0.010376,0.00305176,0.0259399,-0.299377
32,0,0.0195312,-0.0158691,0.0289917,0.0463867,-0.039978,3.02307,0.0778198,0.0250244,0.0213623,0.00518799,-0.0393677,-0.00213623,-0.299072
32,1,0.0164795,-0.032959,0.0314331,0.0692749,-0.0302124,2.90344,0.0518799,0.0283813,0.020752,0.0125122,-0.0128174,0.012207,-0.289307
32,2,0.032959,0.0219727,0.0512695,0.055542,-0.03479,2.42432,0.0738525,0.0531006,-0.00915527,0.0152588,0.00946045,0.0161743,-0.274353
32,3,0.0161743,0.0152588,0.0164795,0.0570679,0.00762939,-0.224915,0.0775146,0.0201416,0.0201416,0.00854492,-0.0128174,0.0186157,-0.258179
32,4,0.0759888,0.0274658,0.0326538,-0.00976562,-0.017395,-3.18207,0.0628662,0.00854492,0.0198364,0.0723267,-0.00579834,0.0192261,-0.266113
33,0,0.0198364,0.00579834,0.0088501,0.0765991,-0.0195312,-3.19183,0.0695801,0.0283813,0.0314331,0.00976562,-0.0164795,0.0231934,-0.239868
33,1,0.0180054,0.00854492,0.0210571,0.0680542,-0.00183105,-3.18451,0.0820923,0.0177002,0.00152588,0.00549316,-0.0231934,0.0189209,-0.13916
33,2,0.0192261,0.00518799,0.0402832,0.0811768,-0.022583,-3.17871,0.0845337,0.0180054,0.00640869,0.00244141,-0.0204468,0.0137329,-0.0750732
33,3,0.0180054,-0.00213623,0.0201416,0.0506592,0.00244141,-2.12646,0.0952148,0.0180054,0.00396729,0.0653076,-0.0219727,0.0192261,-0.0878906
33,4,-0.0469971,0.0106812,0.0219727,0.0897217,-0.0482178,-0.853577,0.0769043,0.0201416,0.00854492,0.00732422,-0.0140381,0.0143433,-0.0366211
34,0,0.0109863,0.10437,0.0283813,0.0616455,-0.0469971,-1.40076,0.0735474,0.0189209,0.00823975,0.027771,-0.0189209,0.0115967,-0.027771
34,1,0.0119019,0.0170898,0.0296021,0.078125,-0.0088501,-1.7868,0.0924683,0.0198364,0.00518799,0.00488281,-0.0268555,0.0262451,-0.000915527
34,2,0.0268555,0.00823975,0.0250244,0.0198364,0.010376,-2.30469,0.0933838,0.0390625,0.0109863,0.0244141,-0.0537109,0.0228882,0.00427246
34,3,0.0253296,0.0204468,0.020752,0.0582886,-0.00457764,-1.40747,0.0869751,0.0286865,0.0576782,0.0244141,-0.0164795,0.0241089,0.0274658
34,4,0.0222778,0.00579834,0.0341797,0.0616455,0.0338745,-1.69098,0.0830078,0.00976562,0.0247192,0.0189209,-0.00823975,0.0234985,-0.0305176
35,0,-0.00244141,0.00823975,0.0378418,0.062561,0.0610352,-2.79877,0.0769043,0.0161743,0.020752,0.0149536,-0.0146484,0.0100708,0.0140381
35,1,0.0125122,0.0234985,-0.00366211,0.0662231,0.065918,-2.71545,0.0930786,-0.000305176,0.00915527,-0.00335693,-0.0152588,0.027771,0.0125122
35,2,0.0106812,0.0100708,0.0323486,0.0759888,0.116577,-2.6004,0.0952148,0.0265503,0.00823975,-0.00823975,-0.0741577,0.0308228,0.0231934
35,3,-0.012207,0.0463867,0.0271606,0.0280762,0.0906372,0.161743,0.0756836,0.0143433,0.0088501,0.010376,-0.0222778,0.00732422,0.108948
35,4,0.015564,0.0527954,0.0268555,0.065918,0.152283,1.47369,0.0991821,0.00488281,0.0146484,0.00946045,-0.0210571,0.00640869,0.0491333
36,0,0.0164795,0.0299072,0.0445557,0.0714111,0.155029,1.7041,0.0875854,0.00640869,0.0152588,-0.00915527,-0.00579834,0.0335693,0.873413
36,1,0.0198364,0.00701904,0.0238037,0.065918,0.0915527,1.10077,0.027771,0.0186157,0.0128174,-0.0320435,-0.0112915,0.017395,1.25793
36,2,0.0198364,0.0152588,0.0140381,0.078125,0.106201,0.695496,0.0787354,0.0320435,0.0216675,0.0100708,0.0332642,0.03479,1.37329
36,3,0.0616455,0.00305176,0.0170898,0.0576782,0.126038,2.16187,0.0930786,0.0445557,0.0109863,0.010376,-0.0180054,0.0323486,1.48926
36,4,0.0793457,0.0231934,0.0320435,0.143738,0.145569,1.57867,0.0918579,0.0286865,0.0201416,-0.0396729,-0.0393677,0.00549316,-0.000610352
37,0,0.0146484,0.0317383,0.0167847,0.0579834,0.104065,1.47491,0.0964355,0.015564,0.0216675,-0.0012207,-0.0192261,0.0201416,-0.176697
37,1,0.0180054,0.0106812,0.0125122,0.0518799,0.123291,1.0199,0.11322,0.0323486,0.0469971,0.00732422,-0.020752,0.0241089,0.307922
37,2,0.0167847,0.022583,0.0125122,0.0512695,0.118103,1.41541,0.0836182,0.0177002,0.00335693,0.0259399,-0.0234985,0.0152588,0.452881
37,3,0.0204468,0.0115967,0.0170898,0.0463867,0.101929,1.14288,0.0909424,0.0268555,0.0112915,0.00732422,-0.0286865,0.0149536,0.310364
37,4,0.012207,0.0137329,0.0326538,0.0723267,0.0692749,2.60132,0.0894165,0.0305176,0.00152588,0.00244141,-0.0219727,0.0265503,0.865479
38,0,0.0256348,0.0344849,0.0234985,0.0292969,0.0354004,1.95282,0.115967,0.0170898,0.0317383,0.00183105,-0.0140381,0.0317383,1.05072
38,1,0.0134277,0.00793457,0.0204468,0.0634766,0.116577,-1.15814,0.093689,0.0222778,0.0137329,0.00518799,-0.00274658,0.0189209,-0.108337
38,2,0.0137329,-0.00732422,0.0222778,0.0640869,0.255737,0.542603,0.105286,0.0576782,0.0167847,-0.000610352,-0.0119019,0.00640869,-0.556641
38,3,0.00213623,0.0189209,0.0198364,0.0784302,0.213623,3.22205,0.0970459,0.0259399,0.0183105,0.00823975,-0.0100708,-0.00488281,-0.0836182
38,4,0.00610352,0.0335693,0.0244141,0.0662231,0.350037,3.15979,0.0891113,0.027771,0.0186157,0.0186157,-0.0201416,-0.00152588,0.596924
39,0,0.0143433,0.0152588,-0.032959,0.0582886,0.671692,3.03772,0.0939941,0.0299072,0.0167847,0.0292969,-0.0241089,0.0253296,-0.216675
39,1,0.0167847,0.0317383,0.00640869,0.0646973,1.08276,2.96631,0.0820923,0.090332,0.0247192,0.0164795,-0.0152588,0.03479,-0.928345
39,2,0.0524902,0.0228882,0.0161743,0.125122,1.59821,-0.288391,0.0518799,0.0482178,0.0164795,-0.0247192,-0.0610352,0.0289917,-0.921326
39,3,0.085144,0.0201416,0.0271606,0.0570679,1.46362,0.101929,0.0915527,0.0183105,0.0134277,0.00457764,-0.0146484,0.0177002,-0.751648
39,4,0.0250244,0.0183105,-0.00915527,0.015564,1.49506,0.00915527,0.0653076,0.0234985,0.0286865,0.00183105,-0.0204468,0.0244141,-0.703735
40,0,-0.0152588,0.00305176,0.00457764,0.0500488,0.39032,-0.942078,0.0906372,0.0088501,0.00762939,0.00976562,0.00671387,0.0167847,-0.628052
40,1,0.0140381,-0.0280762,-0.00488281,0.078125,-0.137634,-0.488281,0.0979614,-0.0393677,0.0204468,0.015564,-0.0210571,0.0146484,-0.562439
40,2,0.0143433,0.0143433,0.0219727,0.0723267,0.120239,-0.0231934,0.117188,0.010376,0.0152588,0.00518799,-0.0198364,0.0216675,-0.513916
40,3,0.0115967,-0.000610352,0.017395,0.0720215,0.429993,-1.09192,0.0909424,-0.0109863,0.0335693,0.0415039,-0.0274658,0.0299072,-0.452576
40,4,0.00488281,-0.00213623,0.0183105,0.057373,0.787659,-0.9198,0.0460815,0.0283813,0.0323486,-0.0256348,-0.0177002,0.0146484,-0.43335
41,0,0.00152588,-0.00579834,-0.00976562,0.0585938,1.15051,-0.482483,0.0787354,0.0140381,0.0137329,0,-0.0326538,-0.0286865,-0.35553
41,1,0.0152588,-0.00640869,0.0143433,0.065918,0.768738,-0.202026,0.0897217,0.039978,0.0146484,0.0140381,-0.0213623,0.0317383,-0.302124
41,2,0.0170898,0.0201416,0.0115967,0.0683594,0.541687,-0.656433,0.0939941,0.0274658,0.0360107,0.00915527,-0.0222778,-0.0250244,-0.271301
41,3,0.0143433,0.00793457,0.0186157,0.0738525,-0.248108,-0.547485,0.088501,0.0231934,0.0723267,0.0228882,-0.0228882,-0.0244141,-0.244141
41,4,0.00701904,0.0320435,0.0259399,0.0769043,-0.514221,-0.593872,0.0680542,0.0292969,0.0231934,-0.020752,-0.0115967,0.0222778,-0.153198
42,0,0.00793457,0.0537109,0.0250244,0.0579834,-0.475464,-1.16577,0.090332,0.038147,0.0271606,0.0363159,-0.0265503,0.0253296,-0.183716
42,1,0.0228882,0.0418091,0.0180054,0.0585938,-0.181885,-0.950623,0.0991821,0.0439453,0.0247192,-0.0125122,-0.0308228,0.0216675,-0.106812
42,2,-0.0466919,0.03479,0.0115967,0.0735474,-0.200806,-0.557251,0.0878906,0.0198364,0.015564,0.0421143,-0.0216675,0.00732422,-0.144958
42,3,0.0561523,0.0283813,0.00427246,-0.0201416,-0.484314,-0.332031,0.148315,0.0457764,0.0357056,0.015564,0.0222778,0.0439453,-0.106812
42,4,-0.00701904,0.0479126,-0.00213623,0.0549316,-0.685425,-0.952454,0.093689,0.0170898,0.0259399,0.0170898,-0.0146484,0.0115967,-0.0827026
43,0,0.0119019,0.03479,0.0128174,0.0488281,-0.646973,0.674438,0.106201,0.0543213,0.0234985,0.0396729,-0.0222778,0.0177002,-0.098877
43,1,0.020752,0.03479,0.0100708,0.0704956,-0.22583,1.02325,0.0714111,0.0210571,0.0790405,0.0201416,-0.0164795,-0.020752,-0.0384521
43,2,0.00946045,0.0305176,0.0088501,0.0927734,-0.196533,1.01227,0.11322,0.032959,0.0189209,0.0253296,-0.00915527,0.00579834,-0.0332642
43,3,0.0241089,0.0210571,-0.065918,0.067749,0.253601,1.61377,0.0991821,0.0344849,0.0689697,0.00549316,-0.0140381,0.00976562,-0.0357056
43,4,0.0167847,0.00488281,0.0128174,0.0546265,0.372009,0.684814,0.102844,0.022583,0.0152588,0.0228882,-0.0338745,0.0338745,0.0515747
44,0,0.0222778,0.0213623,0.012207,0.0735474,0.959778,0.482483,0.0933838,0.0448608,0.0177002,0.0473022,-0.0372314,0.0189209,0.00762939
44,1,0.0186157,0.0195312,0.00701904,0.083313,0.897522,0.0610352,0.0469971,0.0320435,0.0259399,-0.0088501,-0.0192261,0.0268555,-0.0418091
44,2,0.0689697,0.0210571,0.0112915,0.0894165,0.752869,0.250244,0.0915527,0.027771,0.0375366,0.0363159,0.00762939,0.00579834,0.0900269
44,3,0.00488281,0.0128174,0.0213623,0.0714111,0.851135,-0.602722,0.0964355,0.0305176,0.00671387,0.0228882,-0.0106812,0.0363159,0.0280762
44,4,0.0415039,0.0238037,0.00396729,0.0753784,0.973816,0.19928,0.0848389,0.022583,0.0375366,0.027771,-0.0219727,0.0158691,0.0314331
45,0,0.0167847,0.00762939,0.0576782,0.0537109,0.863647,-0.780945,0.0854492,0.0384521,0.0350952,0.0341797,-0.0143433,0.0134277,0.0219727
45,1,0.0149536,0.010376,0.0204468,0.0430298,0.0897217,-1.07574,0.0939941,0.0714111,0.0338745,0.0454712,-0.0280762,0.0158691,0.0509644
45,2,0.0088501,0.0537109,0.0131226,0.0491333,-0.65918,-1.05774,0.0808716,0.0485229,0.0476074,0.0283813,-0.0280762,0.012207,0.0643921
45,3,-0.00946045,0.0308228,0.0183105,0.0741577,-1.93146,-0.945435,0.0994873,0.0280762,0.0311279,0.0131226,-0.0299072,0.0210571,0.0762939
45,4,0.020752,-0.0531006,0.032959,0.0332642,-1.50574,0.241394,0.093689,0.032959,0.0201416,0.0302124,-0.0241089,0.0164795,0.0546265
46,0,0.0308228,0.0332642,0.0723267,0.039978,-1.24451,0.895691,0.0921631,0.0198364,-0.00976562,0.0436401,-0.00915527,-0.0216675,0.0686646
46,1,0.0137329,0.0167847,0.00823975,0.0335693,-1.18744,-0.241699,0.0857544,-0.0106812,0.0296021,0.0213623,-0.0296021,0.0115967,0.0784302
46,2,0.0100708,0.00244141,0.055542,0.0354004,-0.996704,-0.59845,0.0772095,0.0402832,0.0488281,0.0180054,-0.0204468,0.0088501,0.0720215
46,3,0.022583,0.00396729,0.0088501,0.0213623,-1.0376,-0.861206,0.0521851,0.0360107,0.0320435,0.0274658,-0.015564,0.0170898,0.0769043
46,4,0.0125122,0.022583,0.0198364,0.0131226,-1.2027,-0.835876,0.100098,0.0256348,0.0256348,0.0375366,-0.0286865,0.0189209,0.0854492
47,0,0.0152588,0.00946045,0.0231934,0.0204468,-0.934143,-0.721741,0.0701904,0.0231934,0.0161743,0.0335693,-0.0280762,0.0320435,0.0906372
47,1,0.0299072,0.00640869,0.0253296,0.0259399,-0.387878,-0.620422,0.0842285,0.0268555,0.0350952,0.0183105,-0.0231934,0.022583,0.0927734
47,2,0.0241089,0.00457764,0.00579834,0.0228882,-0.248108,-0.550842,0.0683594,0.0250244,0.0192261,0.0241089,-0.0302124,0.0253296,0.0704956
47,3,0.00976562,-0.00335693,0.0164795,0.0372314,-0.126038,-0.458679,0.0891113,0.0213623,0.0396729,0.0378418,-0.0338745,0.0177002,0.0872803
47,4,0.0219727,0.0628662,0.00305176,0.0161743,0.173035,-0.430298,0.0964355,0.0222778,0.0405884,0.0231934,-0.0274658,-0.00213623,0.0784302
48,0,0.0283813,0.010376,0.0360107,0.0436401,0.455627,-0.351257,0.0778198,0.0393677,0.0372314,0.0485229,-0.0262451,0.0158691,0.0875854
48,1,0.0289917,-0.0119019,0.00366211,0.0564575,0.586548,-0.317078,0.0827026,0.0369263,0.0262451,0.0375366,-0.0222778,0.0308228,0.0292969
48,2,0.0509644,0.0299072,-0.0338745,0.0436401,0.419006,-0.336914,0.0750732,0.0271606,0.0222778,0.0314331,-0.0280762,0.0143433,0.090332
48,3,0.0256348,0.038147,0.0698853,0.055542,0.293884,-0.231323,0.0750732,0.0375366,0.0683594,0.0323486,-0.0299072,0.0537109,0.0958252
48,4,0.0250244,-0.00701904,0.0326538,0.0448608,0.271606,-0.21698,0.083313,0.0308228,0.0283813,0.0308228,-0.0311279,-0.00244141,0.0848389
49,0,-0.00701904,0.0137329,0.0210571,-0.0244141,0.108948,0.19104,0.100403,0.022583,0.0335693,0.0238037,-0.0338745,0.0158691,0.0866699
49,1,0.0106812,0.0125122,0.0460815,0.0296021,-0.295715,-0.145874,0.0894165,0.0256348,0.0274658,0.0360107,-0.0375366,0.0469971,0.0949097
49,2,0.0219727,0.00640869,0.0177002,0.0350952,-0.34729,-0.329895,0.0747681,0.0241089,0.0296021,0.0167847,-0.0308228,0.020752,0.0683594
49,3,0.0274658,0.0131226,0.0100708,0.0189209,-0.417786,-0.152283,0.0747681,0.039978,0.0387573,0.0299072,-0.0350952,0.0137329,0.0830078
49,4,0.0241089,0.0106812,0.0143433,0.0238037,-0.644836,-0.167847,0.0909424,0.00183105,0.0466919,0.0405884,-0.0247192,0.0180054,0.0775146
50,0,0.0149536,0.0238037,0.0161743,0.0167847,-0.851746,-0.0674438,0.0930786,0.0228882,0.0375366,0.0149536,-0.0219727,0.015564,0.0799561
50,1,0.0296021,0.000915527,0.0149536,0.0244141,-0.905151,-0.0622559,0.0894165,-0.00701904,0.0238037,0.0152588,-0.0357056,0.0234985,0.085144
50,2,0.0723267,0.017395,0.0192261,0.0656128,-0.855713,-0.0253296,0.0866699,0.0363159,0.0442505,0.0357056,-0.0341797,0.0186157,0.0811768
50,3,0.022583,0.0189209,0.0299072,0.0106812,-0.775452,-0.0219727,0.0863647,0.0317383,0.00793457,0.0183105,-0.0262451,0.0250244,0.0747681
50,4,0.027771,0.010376,0.0268555,0.0216675,-0.906372,-0.00854492,0.0698853,0.0463867,0.0405884,0.038147,-0.038147,0.00946045,0.151062
51,0,0.022583,0.0213623,0.0302124,0.0192261,-0.788574,0.0100708,0.0805664,0.0265503,0.0271606,-0.000610352,-0.0350952,0.00976562,0.0909424
51,1,0.0534058,0.0265503,0.0372314,-0.0164795,-0.367432,0.00732422,0.0854492,0.0152588,0.0201416,0.0109863,-0.0500488,0.010376,0.0790405
51,2,0.0280762,0.010376,0.0265503,0.0506592,-0.15686,0.0393677,0.0314331,0.00213623,0.0558472,0.0305176,-0.0161743,0.00976562,0.0787354
51,3,0.0219727,0.0137329,0.0296021,-0.00823975,-0.0582886,0.0439453,0.0863647,0.0485229,0.0332642,0.0579834,0.00762939,0.0158691,0.0656128
51,4,0.0241089,0.022583,0.00976562,0.0192261,0.190735,0.0631714,0.0692749,0.0320435,0.0558472,0.0369263,-0.015564,0.0366211,0.0891113
52,0,0.0189209,0.0125122,0.0241089,0.0128174,0.421753,0.043335,0.0769043,0.0265503,0.0292969,0.0186157,-0.00427246,0.00915527,0.0778198
52,1,0.0360107,0.00732422,0.0170898,-0.00183105,0.422668,0.0372314,0.0567627,0.0170898,0.0405884,0.0219727,-0.0213623,-0.06073,0.0762939
52,2,0.0100708,0.0170898,0.0177002,0.00976562,0.343933,0.0238037,0.0732422,0.0149536,0.0387573,0.0372314,-0.0311279,0.00518799,0.0756836
52,3,0.0299072,0.017395,0.032959,0.0115967,0.284119,0.072937,0.0674438,0.0366211,0.0338745,0.0354004,-0.0274658,0.0152588,0.06073
52,4,0.0198364,0.0448608,0.0201416,0.00610352,0.349731,-0.0219727,0.078125,0.00671387,0.0408936,0.0378418,-0.0247192,0.0112915,0.0628662
53,0,0.0234985,0.0125122,0.0344849,0.00976562,0.132751,-0.109863,0.0790405,0.00823975,0.03479,0.0296021,-0.0149536,0.017395,0.0665283
53,1,0.0219727,0.00244141,0.022583,0.0250244,-0.395813,0.0994873,0.128784,0.0323486,0.0317383,0.0271606,-0.0259399,0.0183105,0.0579834
53,2,0.00335693,0.012207,0.022583,0.00366211,-0.845947,0.0604248,0.0756836,0.0134277,0.0415039,0.0350952,-0.0271606,0.0241089,0.0704956
53,3,0.027771,0.015564,0.00793457,0.0137329,-0.516357,-1.30463,0.0701904,0.0296021,0.0457764,0.0326538,-0.0323486,0.0460815,0.0537109
53,4,0.0308228,0.0274658,0.0186157,0.0244141,-0.773926,-1.51825,0.0314331,0.0170898,0.0424194,0.0183105,-0.0210571,0.00793457,0.0576782
54,0,0.0332642,0.0216675,0.012207,0.00793457,-0.974121,-2.29034,0.0646973,0.0283813,0.0494385,0.0332642,-0.0189209,0.0125122,0.045166
54,1,0.022583,0.0112915,0.0289917,-0.050354,-0.83313,-2.76825,0.0488281,0.0213623,0.0436401,0.03479,-0.0283813,0.0170898,0.0598145
54,2,-0.0216675,0.0222778,0.0292969,0.020752,-0.783081,-2.5531,0.111389,0.0201416,0.050354,0.0283813,-0.0531006,0.0265503,0.0537109
54,3,0.0341797,0.0296021,0.0134277,-0.00671387,-0.578918,-0.530701,0.0769043,0.0204468,0.0460815,0.0421143,-0.0131226,0.0164795,0.0588989
54,4,0.0384521,0.0201416,0.0109863,0.0128174,-0.411682,-0.368958,0.0640869,0.0219727,0.0369263,0.0280762,-0.0253296,-0.0088501,0.0695801
55,0,0.0314331,0.022583,0.0305176,0.00854492,-0.219116,-1.93573,0.0698853,0.0146484,-0.00488281,0.0411987,-0.0408936,0.00823975,0.0570679
55,1,0.0402832,0.0241089,0.0231934,0.0115967,0.296021,-2.49969,0.0634766,0.043335,0.039978,0.0265503,-0.03479,0.0219727,0.0656128
55,2,0.0146484,0.0195312,0.0012207,0.020752,0.254822,-2.22504,0.0640869,0.0320435,0.0296021,0.0268555,-0.0106812,0.0088501,0.0552368
55,3,0.039978,0.0134277,0.0350952,0.0256348,0.119934,-2.08038,0.0778198,0.0332642,0.0350952,0.0354004,-0.0296021,0.00793457,0.0750732
55,4,0.0732422,-0.00244141,0.0189209,0.0112915,0.269165,-2.26349,0.0820923,0.0305176,0.0375366,0.032959,-0.00518799,0.0274658,0.0390625
56,0,0.039978,-0.0411987,0.0228882,0.0137329,0.380859,-0.66864,0.0576782,0.0527954,0.0338745,0.0140381,-0.0283813,0.0177002,0.0430298
56,1,0.0253296,0.00671387,0.0296021,0.0216675,0.163574,-0.700684,0.0546265,0.0210571,0.038147,0.0195312,-0.0271606,0.0195312,0.0634766
56,2,0.0170898,-0.0262451,0.0198364,0.0195312,0.360413,-0.726624,0.0708008,0.0289917,0.0280762,0.0286865,-0.0482178,0.0186157,0.0482178
56,3,0.0280762,0.0323486,0.0186157,0.0244141,0.278625,3.31207,0.0790405,0.0137329,0.00152588,0.0189209,-0.0317383,-0.0253296,0.0570679
56,4,0.0198364,0.0314331,0.0250244,0.0253296,0.379639,-2.14508,0.0689697,0.0784302,0.027771,0.0219727,-0.0250244,0.0238037,0.0332642
57,0,-0.00335693,0.022583,0.020752,0.0387573,0.371094,0.938416,0.107727,0.00213623,0.0201416,0.043335,-0.0534058,0.0234985,0.050354
57,1,0.0320435,0.00305176,0.0161743,0.00946045,0.315247,3.30536,0.110779,0.00823975,0.032959,0.0183105,-0.0186157,0.0274658,0.0448608
57,2,0.0241089,0.0216675,0.0088501,0.015564,-0.10376,3.32123,0.065918,0.0344849,0.0314331,0.0387573,-0.0335693,0.0152588,0.0360107
57,3,0.0259399,0.0164795,0.0253296,0.0180054,0.0976562,3.28827,0.065918,0.0131226,0.0228882,0.0283813,-0.0613403,0.0268555,0.0454712
57,4,0.0332642,0.0259399,0.0088501,0.0158691,-0.552063,3.29651,0.0759888,0.0460815,0.0338745,0.0219727,-0.0341797,0.0280762,0.0466919
58,0,0.0308228,0.0296021,0.0469971,-0.00183105,-0.621643,3.29376,0.065918,0.0213623,0.0149536,0.0250244,-0.022583,0.0219727,0.0350952
58,1,0.0274658,0.0238037,0.0219727,0.0518799,-0.526428,3.30841,0.0769043,0.043335,0.020752,0.0128174,-0.0613403,0.0286865,0.043335
58,2,0.0241089,0.0378418,0.0317383,0.0286865,-0.45929,3.30597,0.0854492,0.012207,0.0241089,0.0228882,-0.0198364,0.0186157,1.67542
58,3,0.0219727,0.0262451,0.0134277,0.0131226,-0.224915,-2.63062,0.0570679,0.0189209,0.0115967,0.0164795,-0.0299072,0.015564,1.72485
58,4,0.0323486,0.0289917,0.020752,0.0244141,-0.245056,-2.98828,0.0601196,0.0192261,0.0326538,0.015564,-0.0244141,0.0485229,1.6394
59,0,0.0421143,0.0149536,0.0164795,0.00335693,-0.257874,-2.86865,0.0723267,0.0369263,0.0189209,0.0262451,-0.0439453,0.0247192,1.50055
59,1,0.0234985,0.0320435,0.00762939,0.0198364,-0.0366211,-2.75055,0.0601196,0.0216675,0.0131226,0.015564,-0.0311279,0.0268555,1.43097
59,2,-0.0180054,0.0140381,0.0231934,0.0802612,0.170288,-2.65137,0.10437,0.0161743,0.0241089,-0.0234985,-0.0238037,0.00793457,1.41663
59,3,0.0320435,-0.00305176,0.0393677,0.0125122,0.345154,-2.56714,0.067749,0.0274658,0.00518799,0.0161743,-0.0335693,0.0259399,1.27869
59,4,0.0283813,-0.00854492,0.0210571,0.027771,0.456543,-2.52686,0.0637817,0.0106812,0.0244141,0.0170898,-0.0292969,0.0326538,1.17706
60,0,0.0274658,0.00671387,0.022583,-0.0219727,0.155945,-2.38068,0.103455,0.0109863,0.00213623,0.0106812,-0.0314331,0.0186157,1.11694
60,1,-0.0262451,-0.00335693,0.0219727,0.0311279,-0.242004,-2.28821,0.0567627,0.0100708,0.0195312,0.0253296,0.0088501,0.0299072,1.05225
60,2,0.0323486,0.00915527,0.0280762,0.0222778,-0.211487,-2.20734,0.062561,0.0204468,0.00335693,0.00274658,-0.0250244,0.0332642,0.956726
60,3,0.0292969,0.0317383,0.0210571,0.027771,-0.171204,-2.13287,0.0610352,0.015564,0.00549316,0.010376,-0.00915527,0.0296021,0.889282
60,4,0.0201416,0,0.0271606,0.0338745,0.220642,-2.0575,0.050354,0.0100708,-0.00183105,0.0128174,-0.027771,0.0427246,0.81604
61,0,0.0384521,0.045166,0.0183105,-0.0265503,0.231934,-1.9693,0.093689,0.0164795,0.0192261,-0.0106812,-0.0308228,0.0152588,0.738525
61,1,0.0216675,0.057373,0.0250244,0.022583,-0.121155,3.30353,0.0494385,0.0158691,0.00152588,0.0198364,-0.0402832,0.00793457,0.658264
61,2,0.0473022,0.062561,0.0350952,0.0476074,-0.113525,3.28735,0.045166,0.0360107,0.0186157,0.0164795,-0.0326538,0.0241089,0.576172
61,3,0.0292969,0.0521851,-0.0289917,0.0274658,0.118713,0.847778,0.0515747,0.00915527,0.00549316,0.0140381,-0.0341797,0.0299072,0.411987
61,4,0.0256348,0.06073,0.0216675,0.0457764,-0.0430298,2.36633,0.0564575,0.0244141,0.0192261,-0.00427246,-0.0247192,0.0387573,0.374756
62,0,0.022583,0.020752,0.0238037,0.0418091,-0.0415039,3.28979,0.050354,0.0201416,0.0186157,-0.00579834,-0.0341797,0.0323486,0.354309
62,1,0.0317383,0.0369263,0.0213623,0.0491333,-0.00579834,3.30536,0.0650024,0.0143433,0.00701904,-0.0115967,-0.0384521,0.0778198,0.326843
62,2,0.0228882,0.0427246,0.0265503,0.0448608,0.0164795,3.28247,0.0942993,0.0167847,-0.00183105,0.0299072,-0.0390625,0.0595093,0.272827
62,3,0.0479126,0.0320435,0.0274658,0.0396729,0.0637817,3.17047,0.0546265,0.0180054,0.0250244,-0.000305176,-0.0506592,0.0323486,0.198059
62,4,0.0302124,0.0402832,0.022583,0.0421143,0.0854492,-2.38831,0.0512695,0.0250244,0.0149536,-0.0186157,-0.0311279,0.0231934,0.0732422
63,0,0.0247192,0.0628662,0.0244141,0.0497437,0.050354,-2.80823,0.0521851,-0.0408936,-0.00854492,-0.00946045,-0.0314331,0.0405884,-0.022583
63,1,0.0100708,0.0170898,0.0262451,0.0476074,0.109253,-2.69562,0.0506592,0.0262451,0.0109863,-0.00793457,-0.0286865,0.020752,-0.0485229
63,2,0.0378418,0.0317383,0.0241089,0.0524902,0.113831,-2.60498,0.0466919,0.0454712,-0.00732422,0.00488281,-0.0244141,0.0320435,-0.0744629
63,3,0.039978,0.015564,-0.0210571,0.038147,0.106506,-2.53479,0.0524902,0.012207,0.0460815,0.0219727,-0.0198364,0.0491333,-0.113831
63,4,0.0363159,0.0213623,0.0210571,0.0213623,0.130005,-2.41119,0.0512695,0.00335693,0.00457764,0.012207,-0.0213623,0.0360107,-0.149231
64,0,0.0363159,0.0195312,0.0366211,0.0479126,0.166626,-2.30865,0.0317383,0.015564,0.0518799,0.00854492,-0.0271606,0.0610352,-0.205994
64,1,0.0469971,0.0228882,0.0262451,0.0518799,0.146179,2.92389,0.0320435,0.0140381,-0.00213623,-0.0183105,-0.0308228,0.0521851,-0.179138
64,2,0.0631714,0.015564,0.0216675,0.0500488,0.164795,3.29651,0.0186157,0.0180054,0.0149536,0.0375366,-0.0332642,0.0366211,-0.21637
64,3,0.0372314,-0.00701904,0.0231934,0.0494385,0.222168,3.29437,0.050354,-0.0393677,0.00915527,0.00946045,-0.0189209,0.0283813,-0.236511
64,4,-0.00457764,0.017395,0.0250244,0.0967407,0.158081,3.2785,0.0500488,0.0247192,0.00823975,0.0222778,-0.0259399,0.0424194,-0.266113
65,0,0.0222778,0.0106812,0.0335693,0.0436401,0.107727,3.30841,0.0500488,0.0262451,0.00732422,0.0112915,0.00274658,0.038147,-0.296631
65,1,0.0283813,0.00640869,0.0250244,0.0357056,0.16571,3.30566,0.0506592,0.0204468,0.0100708,0.0317383,-0.0411987,0.0500488,-0.291748
65,2,0.0360107,0.0497437,0.0378418,0.0292969,0.16449,3.27057,0.0442505,0.0192261,0.0189209,0.0314331,-0.0308228,0.00854492,-0.316467
65,3,0.0421143,0.0439453,0.0228882,0.0543213,0.169983,3.14117,0.050354,0.0231934,0.0436401,0.0326538,-0.0244141,0.0448608,-0.307922
65,4,0.0393677,0.0305176,0.0134277,0.00671387,0.176697,1.86127,0.0488281,0.0234985,0.0268555,0.0683594,-0.0119019,0.0350952,-0.351868
66,0,0.038147,0.0219727,0.0888062,0.0482178,0.171204,2.86652,0.0442505,0.0128174,0.00488281,0.0344849,-0.0189209,0.0286865,-0.343323
66,1,0.0531006,0.0283813,0.0445557,0.0491333,0.174866,2.97729,0.0482178,0.0167847,0.0350952,0.0512695,-0.0363159,0.032959,-0.328064
66,2,0.0363159,-0.00427246,0.03479,0.032959,0.117493,2.92084,0.0384521,-0.00457764,0.0302124,0.0604248,-0.0253296,0.0350952,-0.312195
66,3,0.0305176,0.0537109,0.0201416,0.0305176,0.175171,2.85339,0.0415039,0.0195312,0.0317383,0.0772095,-0.0186157,0.0463867,-0.305176
66,4,0.0241089,0.06073,0.0228882,0.0317383,0.184021,2.79785,0.0375366,0.0271606,0.0259399,0.0628662,-0.0152588,0.0350952,-0.297241
67,0,0.0265503,0.0692749,0.0201416,0.0341797,0.19928,2.69012,0.0445557,0.0296021,0.0253296,0.0479126,-0.03479,0.0393677,-0.294495
67,1,0.0360107,0.0372314,0.0259399,0.0320435,0.195923,2.58728,0.0320435,0.0189209,0.0201416,0.057373,-0.043335,0.0369263,-0.303345
67,2,0.0228882,0.0283813,0.0201416,-0.0149536,0.196228,2.49664,0.0366211,0.00305176,0.0189209,0.0531006,-0.00213623,0.0271606,-0.343628
67,3,0.057373,0.0497437,0.0521851,0.0402832,0.194702,2.40265,0.0326538,0.00671387,0.0213623,0.0650024,-0.0262451,0.0302124,-0.428162
67,4,0.0234985,0.022583,0.0189209,0.0384521,0.146179,2.31537,0.0387573,0.0131226,0.0201416,0.0579834,-0.0271606,0.0350952,-0.364075
68,0,0.0512695,0.0421143,0.0213623,0.0894165,0.162964,2.23022,0.0183105,0.00854492,0.0128174,0.0592041,-0.0158691,0.0378418,-0.398865
68,1,0.0314331,0.0939941,0.00793457,0.0424194,0.169678,2.17163,0.0469971,0.0222778,0.0189209,0.0836182,-0.0299072,0.0387573,-0.361023
68,2,0.0271606,0.0360107,-0.0238037,0.0421143,0.139771,2.12799,0.0537109,0.0234985,-0.00366211,0.0671387,-0.032959,0.0183105,-0.297241
68,3,0.0344849,0.0299072,0.0369263,0.039978,0.16449,1.99188,0.0506592,0.0219727,-0.017395,0.0558472,-0.0167847,0.0848389,-0.235901
68,4,-0.0274658,0.0213623,0.00579834,0.0717163,0.176086,1.95374,0.045166,0.00823975,0.0198364,0.0576782,-0.0372314,0.0228882,-0.209351
69,0,0.0408936,0.0360107,0.0234985,0.027771,0.18219,1.87073,0.00579834,-0.000305176,0.0186157,0.098877,-0.0216675,0.0317383,-0.217285
69,1,0.0259399,0.0192261,0.0195312,0.043335,0.164795,1.80359,0.0634766,0.0170898,-0.00610352,0.0213623,-0.0308228,0.0280762,-0.194397
69,2,0.0292969,0.0408936,0.0134277,0.0250244,0.163269,1.69708,0.0479126,0.0244141,-0.0457764,0.0427246,-0.0244141,0.0643921,-0.196533
69,3,0.0338745,0.0521851,0.020752,0.0332642,0.157471,1.69434,0.0402832,0.0289917,-0.000305176,0.0357056,-0.0177002,0.0265503,-0.183105
69,4,0.012207,0.0198364,0.0289917,0.0219727,0.160522,1.61102,0.0762939,0.0250244,0.0106812,0.0570679,-0.0213623,-0.00732422,-0.193787
70,0,0.0186157,0.0366211,0.0378418,0.0167847,0.145569,1.55609,0.0445557,0.0161743,0.0488281,0.043335,-0.0250244,0.0280762,-0.193481
70,1,0.0317383,0.0253296,0.0283813,0.027771,0.158081,1.48285,0.0585938,0.0317383,0.00915527,0.0213623,-0.0411987,0.0375366,-0.195007
70,2,0.0241089,0.0302124,0.0256348,0.0274658,0.142517,1.44562,0.0482178,0.0170898,0.0158691,0.0500488,-0.0265503,0.0195312,-0.269775
70,3,0.0231934,0.00793457,0.0228882,0.0292969,0.135193,1.39221,0.0390625,0.0256348,0.00732422,0.0134277,-0.0756836,0.0164795,-0.467834
70,4,-0.00183105,0.0262451,0.0369263,0.0357056,0.125122,1.33698,0.0366211,0.00640869,0.0112915,0.032959,-0.0170898,0.0323486,-0.606384
71,0,0.0180054,0.0204468,0.00640869,0.0299072,0.133972,1.30249,0.0531006,0.0646973,0.00244141,0.0167847,-0.0189209,0.0292969,-0.744934
71,1,0.0357056,0.00701904,0.0192261,0.0439453,0.126953,1.22986,0.0521851,0.0222778,-0.00335693,0.0125122,-0.0210571,0.0479126,-0.661926
71,2,0.0219727,0.0283813,0.0299072,0.0576782,0.150146,1.1734,0.0143433,0.0216675,0.000610352,-0.0396729,-0.0112915,0.0305176,-0.611267
71,3,0.0131226,0.0241089,0.0088501,0.0338745,0.117188,0.932312,0.0814819,0.0189209,0.0112915,0.00335693,-0.0289917,0.0250244,-0.538025
71,4,0.0195312,0.0222778,0.020752,0.0350952,0.128479,0.667114,0.0286865,0.0186157,0.0234985,0.0296021,-0.0198364,0.0323486,-0.526428
72,0,0.0143433,0.038147,0.0317383,0.0387573,0.128174,0.432434,0.0457764,-0.0088501,0.022583,0.0189209,-0.0219727,0.032959,-0.521545
72,1,0.0137329,0.0210571,0.0201416,0.0244141,0.104675,0.214539,0.0296021,0.0201416,0.0360107,0.0259399,-0.0350952,0.0250244,-0.45105
72,2,0.0250244,0.0497437,0.0228882,0.0299072,0.170288,0.0424194,0.0332642,0.0238037,0.0216675,0.00854492,0.00366211,-0.00610352,-0.444336
72,3,0.0323486,0.0186157,0.0234985,0.0189209,0.290833,-1.13251,0.0393677,0.0186157,-0.0476074,0.010376,-0.0265503,0.0411987,-0.341492
72,4,0.0271606,0.0402832,0.0317383,0.0164795,0.476685,-3.18024,0.0445557,-0.010376,-0.0088501,0.00183105,-0.0164795,0.0274658,-0.325012
73,0,0.0247192,0.0189209,0.03479,0.0143433,0.292358,-3.17841,0.0363159,0.00762939,0.0109863,-0.00579834,-0.010376,0.020752,-0.379944
73,1,0.0170898,0.0137329,0.0115967,0.0137329,0.0750732,-3.18298,0.0445557,0.0149536,0.00457764,0.00427246,-0.0183105,0.0274658,-0.526733
73,2,-0.00793457,0.0311279,0.0354004,0.0323486,0.0439453,-3.17871,0.0421143,0.0152588,-0.00701904,-0.00152588,-0.0164795,0.0274658,-0.605164
73,3,0.0170898,0.039978,0.0106812,0.0265503,0.108337,-3.17841,0.0512695,0.0265503,0.010376,0.00457764,-0.0323486,0.0271606,-0.709229
73,4,0.0320435,0.0469971,0.0271606,0.0186157,0.0494385,-3.18207,0.015564,0.0109863,0.0198364,0.043335,-0.0238037,0.0213623,-0.779114
74,0,0.0274658,0.0534058,0.0259399,0.0357056,0.0802612,-3.19458,0.03479,-0.0244141,0.00854492,0.0100708,-0.0228882,0.0241089,-0.929871
74,1,0.022583,-0.0143433,0.012207,0.0314331,0.0634766,-3.18939,0.0296021,0.0418091,0.0234985,0.0012207,-0.0228882,0.0341797,-1.20514
74,2,0.0134277,0.0378418,0.0357056,0.0421143,0.120239,-3.17657,0.0485229,0.0488281,0.00396729,-0.00976562,-0.0195312,0.0256348,-1.05652
74,3,0.0286865,0.0476074,0.0274658,0.0280762,0.0604248,-3.16559,0.0427246,0.03479,0.0302124,0.00915527,-0.0112915,0.0247192,-0.888367
74,4,0.0338745,0.0134277,0.0357056,0.00488281,0.0546265,-3.17627,0.0842285,0.0439453,0.0210571,0.0567627,-0.0280762,0.0167847,-0.822754
75,0,0.0234985,0.0253296,-0.00335693,0.0360107,0.0567627,-3.19855,0.0567627,0.0360107,0.0274658,0.00640869,-0.0219727,0.027771,-0.739746
75,1,-0.00335693,0.0408936,0.0238037,0.0305176,0.071106,2.04376,0.0396729,0.0164795,0.0216675,0.010376,-0.0491333,0.0463867,-0.621338
75,2,0.0280762,0.038147,0.0115967,0.027771,0.0735474,2.68829,0.0357056,0.0338745,0.00366211,0.00152588,-0.0405884,0.0280762,-0.470276
75,3,0.0213623,0.0167847,0.050354,0.0192261,0.0704956,2.60895,0.0195312,0.0204468,0.0256348,0.0320435,-0.0213623,0.0296021,-0.350037
75,4,0.0259399,0.0274658,0.0421143,0.0262451,0.0708008,2.50061,0.0515747,0.0320435,-0.010376,0.0213623,-0.0134277,0.000305176,-0.237122
76,0,0.03479,0.0152588,0.0305176,0.0189209,0.0897217,0.783997,0.0314331,0.0158691,0.0198364,0.0106812,-0.0344849,0.0189209,-0.198364
76,1,0.0115967,0.0164795,0.0299072,0.00427246,0.0875854,-1.81732,0.0595093,0.00793457,0.0204468,0.0164795,-0.00915527,0.0088501,-0.193787
76,2,0.0268555,0.00732422,0.027771,0.0109863,0.0756836,2.39655,0.0363159,0.0216675,0.0119019,0.0106812,-0.0158691,0.062561,-0.201416
76,3,0.0320435,-0.00610352,0.0210571,0.0253296,0.0778198,2.32056,0.0366211,-0.00396729,0.0289917,0.0112915,-0.0527954,0.0274658,-1.32202
76,4,0.0292969,-0.0289917,0.0338745,0.0256348,0.0653076,2.22504,0.0262451,0.0302124,0.0137329,0.012207,-0.0228882,0.0244141,-2.02454
77,0,0.0183105,0.0183105,0.0231934,0.0305176,0.0570679,2.1521,0.0363159,0.0466919,0.0387573,0.0149536,-0.0662231,0.000305176,-1.28021
77,1,0.050354,0.0357056,0.0384521,0.0128174,0.0494385,2.08282,0.0378418,0.0183105,-0.0250244,0.0183105,-0.0201416,0.0790405,-0.704651
77,2,0.0204468,0.0292969,0.0210571,0.0167847,0.06073,1.97723,0.0354004,0.0167847,0.03479,0.0183105,-0.027771,0.0228882,-0.464783
77,3,0.0112915,0.0088501,0.0375366,0.0256348,0.0463867,1.90552,0.0482178,0.0183105,0.000915527,0.0570679,-0.0262451,0.0402832,-0.466614
77,4,0.0106812,0.022583,0.0216675,0.0256348,0.0497437,1.84418,0.0448608,0.0366211,0.0161743,0.012207,-0.0210571,0.00915527,-1.16486
78,0,0.0198364,0.0152588,0.0808716,0.0115967,0.0482178,1.73859,0.0238037,0.0128174,-0.0119019,0.0164795,-0.0256348,0.0598145,-1.96533
78,1,0.0134277,0.0088501,0.0149536,0.0292969,0.0637817,1.71906,0.0534058,0.00640869,0.00213623,0.0228882,0.0149536,0.0177002,-1.81824
78,2,0.0195312,0.0372314,0.0158691,0.0247192,0.106506,-0.503845,0.0402832,0.0393677,0.0100708,0.0158691,-0.0601196,0.0332642,-1.59607
78,3,0.0430298,0.0524902,0.0326538,0.0167847,0.0427246,-3.17017,0.0439453,0.0326538,-0.00305176,0.0216675,0.0119019,0.0100708,-1.07422
78,4,0.0161743,0.0283813,0.0338745,0.0112915,0.0372314,-3.17902,0.050354,0.0189209,0.00488281,0.0332642,-0.0247192,0.00976562,-0.98175
79,0,0.0137329,0.0228882,0.0262451,0.0317383,0.0485229,1.46637,0.0363159,0.0268555,0.0192261,0.0247192,-0.032959,0.00152588,-0.72998
79,1,0.0128174,0.0189209,0.0161743,0.0292969,0.0448608,1.95587,0.0357056,0.0170898,0.0234985,-0.00274658,-0.020752,0.00915527,-0.0164795
79,2,0.0302124,0.0286865,0.0231934,0.0567627,0.0402832,1.80573,0.00244141,0.0238037,0.020752,0.027771,-0.0274658,-0.000305176,0.118103
79,3,0.0222778,0.0869751,0.0231934,0.0213623,0.0765991,1.73218,0.0421143,-0.0411987,0.0189209,0.0198364,-0.0366211,0.0106812,-0.200195
79,4,0.00976562,0.0204468,0.0231934,0.0274658,0.0527954,1.68671,0.0390625,0.0125122,-0.0323486,0.0280762,-0.022583,0.00854492,0.109253
80,0,0.0158691,0.0146484,0.027771,0.022583,0.0524902,1.61438,0.0320435,0.0143433,0.0238037,0.0186157,-0.0152588,0.00366211,0.554199
80,1,0.0012207,-0.00244141,0.0732422,0.0372314,0.043335,1.56647,0.0308228,0.0167847,0.0183105,0.0167847,-0.0100708,0.015564,0.843811
80,2,0.0119019,0.0289917,0.110474,0.0350952,0.0469971,1.33453,0.0253296,0.015564,-0.0323486,0.03479,-0.0119019,-0.0180054,1.00525
80,3,0.017395,0.00610352,0.0253296,0.00976562,0.0485229,-0.643616,0.0418091,0.0222778,0.0344849,0.0180054,-0.0216675,0.0216675,1.06293
80,4,0.0823975,0,0.0238037,0.0421143,0.0494385,1.34033,0.0415039,0.020752,0.0170898,0.0280762,-0.0228882,0.0164795,1.11664
81,0,0.0177002,0.0161743,0.020752,0.0167847,0.0888062,1.41388,0.0460815,-0.0106812,0.0183105,0.0250244,-0.0219727,0.0216675,1.15479
81,1,0.0149536,0.00152588,0.015564,0.0241089,0.0616455,1.36139,0.0457764,0.0204468,0.000915527,0.0234985,-0.0128174,0.0177002,1.13892
81,2,-0.00915527,0.0473022,0.0231934,0.00305176,-0.00274658,1.32629,0.0546265,0.0216675,0.020752,0.0198364,-0.00823975,0.0137329,1.11389
81,3,0.0222778,0.010376,0.0177002,0.0238037,0.039978,1.25244,0.0372314,0.0262451,0.0744629,0.0308228,-0.0119019,-0.0402832,1.06934
81,4,0.0195312,0.00854492,0.0390625,0.0286865,0.050354,1.23138,0.0427246,0.0250244,0.0296021,-0.0280762,-0.020752,0.0262451,1.06781
82,0,0.0357056,0.0250244,0.020752,-0.00549316,0.039978,-1.01837,0.0552368,0.0265503,0.0241089,0.0384521,-0.0167847,0.0231934,0.911865
82,1,0.022583,0.0231934,0.038147,0.020752,0.0308228,-3.15186,0.0592041,0.0250244,0.0265503,0.0289917,-0.0152588,-0.0100708,0.916443
82,2,-0.0268555,0.0372314,0.0302124,0.0695801,0.0253296,0.848389,0.0494385,0.015564,0.0292969,0.0213623,-0.0106812,0.0134277,0.881348
82,3,-0.00305176,0.0268555,0.022583,0.017395,0.0323486,1.28662,0.0714111,0.0436401,0.0195312,0.0195312,-0.0164795,0.00823975,0.793457
82,4,0.0192261,0.0299072,0.0283813,0.0299072,0.0317383,1.2323,0.0537109,0.0241089,0.0375366,0.0292969,-0.00549316,0.00610352,-0.942993
83,0,0.0146484,0.00823975,-0.032959,0.00793457,0.0320435,1.16791,0.0527954,0.0222778,0.0631714,0.027771,-0.0250244,-0.020752,-0.764465
83,1,0.0210571,0.00823975,-0.0204468,0.0115967,0.0415039,0.385437,0.0457764,0.0280762,0.0488281,0.0137329,-0.0378418,0.0115967,-0.444336
83,2,0.0158691,0.00762939,0.0100708,0.00671387,0.0286865,-2.70538,0.0497437,0.0201416,0.0836182,0.0170898,-0.012207,0.0186157,-0.0872803
83,3,0.0177002,0.0112915,0.0488281,0.0131226,0.043335,-3.17505,0.0457764,0.0375366,0.0253296,0.0369263,-0.0262451,0.0210571,0.137939
83,4,-0.0308228,0.00549316,0.00976562,0.0167847,0.0585938,-3.18787,0.0906372,0.0210571,0.0201416,0.0674438,-0.0143433,0.00427246,0.463867
84,0,0.0140381,-0.0274658,0.0323486,-0.00152588,0.0723267,1.44531,0.0524902,0.0280762,0.00610352,0.0234985,-0.0256348,0.0112915,0.559082
84,1,0.00396729,-0.012207,-0.0317383,0.00396729,0.0646973,0.948792,0.0427246,0.032959,0.0195312,0.0241089,-0.0186157,0.0112915,0.681458
84,2,0.0238037,-0.00701904,0.0195312,0.00793457,0.0415039,-1.97632,0.0595093,0.0131226,0.03479,0,-0.0219727,0.06073,0.715942
84,3,0.0210571,-0.0540161,0.0161743,-0.00183105,0.0421143,-0.0299072,0.0506592,0.0558472,0.0143433,0.0332642,-0.020752,0.0210571,0.70282
84,4,0.0244141,-0.0152588,0.0143433,-0.000610352,0.0296021,1.43951,0.0393677,0.020752,0.0198364,0.0250244,-0.0131226,0.012207,0.71167
85,0,0.0192261,0.00762939,0.00518799,0.0363159,0.0314331,1.38184,0.0445557,0.012207,0.0115967,0.0384521,-0.0198364,0.0259399,0.667114
85,1,0.00396729,0.0283813,0.0234985,0.010376,0.0259399,1.32019,0.0512695,0.0201416,0.010376,0,-0.0460815,0.0012207,0.636292
85,2,0.017395,0.0531006,-0.000305176,0.0158691,0.0238037,1.27716,0.0442505,0.00396729,0.0778198,0.0256348,-0.00946045,-0.0180054,0.596619
85,3,0.0161743,0.0387573,0.0140381,-0.00549316,0.0338745,1.22223,0.0201416,0.0164795,0.0317383,0.0430298,-0.0186157,0.0268555,0.580139
85,4,0.0305176,0.071106,0.00305176,0.00701904,0.0259399,1.18591,0.0463867,0.015564,0.00457764,0.0247192,-0.0177002,0.0164795,0.53894
86,0,0.0228882,0.0234985,-0.0463867,0.0088501,0.0238037,1.05499,0.0518799,0.0375366,0.020752,0.0192261,-0.0213623,0.0161743,0.523682
86,1,0.0149536,0.0280762,0.0494385,0.000610352,0.0405884,0.802612,0.0482178,0.027771,0.0186157,-0.00671387,-0.0137329,0.0128174,0.487671
86,2,0.0177002,0.055542,0.0234985,-0.010376,0.0317383,0.782471,0.0524902,0.0476074,0.0354004,0.0283813,-0.0115967,0.017395,0.404663
86,3,0.00946045,0.0183105,0.0189209,-0.00854492,0.032959,-0.187073,0.00671387,0.0378418,0.0231934,0.0692749,-0.0131226,0.020752,-0.4422
86,4,-0.0238037,0.03479,0.0219727,-0.00518799,0.0354004,-0.748596,0.0311279,0.0320435,0.0100708,0.00793457,-0.0152588,0.017395,-1.28387
87,0,0.0119019,0.0289917,-0.0222778,-0.0195312,0.0296021,-1.2854,0.0393677,0.0332642,0.0216675,0.0177002,-0.0210571,0.00457764,-1.27472
87,1,0.0289917,0.0109863,0.00457764,-0.0100708,0.022583,-1.5918,0.0537109,0.06073,0.0112915,0.0238037,-0.0131226,0.00488281,-1.20667
87,2,0.0152588,-0.00305176,0.00701904,-0.00610352,0.0354004,-1.70135,0.0442505,0.0314331,0.03479,0.022583,-0.0231934,-0.0280762,-1.0498
87,3,0.0228882,-0.0515747,0.0231934,-0.0100708,0.0396729,-1.9754,0.0506592,0.0369263,0.0411987,0.015564,-0.0283813,-0.0143433,-0.91217
87,4,0.0161743,0.00366211,0.00732422,-0.0204468,0.0405884,-2.39441,0.0393677,0.00213623,0.0344849,0.0216675,-0.00396729,0.00518799,-0.776062
88,0,0.0119019,-0.0131226,-0.000610352,-0.0228882,0.0271606,-2.54852,0.0616455,0.0311279,0.0088501,0.0109863,-0.0234985,-0.0204468,-0.571594
88,1,0.0106812,-0.0387573,0.0192261,-0.0286865,0.039978,-2.71973,0.045166,0.0259399,0.0289917,0.0231934,-0.0137329,0.00396729,-0.290833
88,2,0.027771,-0.0170898,-0.027771,-0.0311279,0.0161743,-3.2431,0.0424194,0.022583,0.0360107,0.0198364,-0.0128174,0.0271606,-0.0930786
88,3,0.0256348,-0.045166,0.020752,-0.0140381,-0.00762939,-3.1662,0.0305176,0.0320435,0.0244141,0.0238037,-0.0256348,0.0286865,0.2948
88,4,0.0112915,-0.0256348,0.0268555,-0.0198364,0.0372314,-3.17322,0.0442505,0.038147,0.0350952,0.0250244,-0.0161743,0.0201416,0.534363
89,0,-0.0442505,-0.0115967,0.0088501,-0.0656128,0.00549316,-3.17535,0.0372314,0.0500488,0.0289917,0.0192261,-0.0164795,0.0146484,0.670776
89,1,0.0100708,-0.00213623,0.0158691,0.00183105,0.0323486,-3.16956,0.0860596,0.0125122,0.0308228,0.0189209,-0.0250244,0.00701904,0.747986
89,2,0.0827026,0.0128174,0.0244141,-0.0552368,0.057373,-3.172,0.0405884,0.0286865,0.0210571,0.0131226,-0.0283813,0.015564,0.793762
89,3,0.0296021,0.0473022,0.0143433,-0.0119019,0.0814819,-1.31592,0.0546265,0.0289917,0.0201416,0.0271606,-0.0415039,0.0119019,0.682983
89,4,0.0115967,0.0473022,0.0177002,0.0430298,0.0588989,1.57928,0.0119019,0.0372314,0.012207,-0.0485229,-0.0234985,0.0180054,0.469666
90,0,0.0183105,0.0534058,0.0119019,-0.010376,0.0302124,1.26068,0.0466919,0.0299072,0.00610352,0.0289917,-0.017395,0.00183105,0.610046
90,1,0.0152588,0.0567627,0.0280762,-0.0158691,-0.00549316,-0.302124,0.0430298,0.0405884,-0.00183105,0.0302124,-0.00976562,0.0201416,0.709229
90,2,0.0338745,0.0512695,0.0186157,-0.0161743,0.0143433,-1.7569,0.0723267,0.038147,0.0259399,0.0131226,-0.0247192,0.015564,0.715027
90,3,-0.0210571,0.0442505,-0.00854492,0.00793457,0.00488281,-2.82043,0.0296021,0.03479,0.0238037,0.0088501,-0.0186157,0.0222778,0.734253
90,4,0.0305176,0.0164795,0.0161743,-0.0167847,0.00488281,-3.19214,0.0518799,0.0341797,0.0292969,0.0338745,-0.0302124,0.0134277,0.715942
91,0,0.0604248,0.0192261,0.00732422,0.0170898,0.00305176,-3.17902,0.0485229,0.0460815,0.00915527,0.0326538,-0.0213623,0.00854492,0.710144
91,1,0.0146484,0.0289917,0.0183105,-0.0170898,0.0152588,-3.14301,0.0372314,0.0366211,0.0167847,0.0125122,-0.0125122,0.0741577,0.698242
91,2,0.0201416,0.0152588,0.0128174,-0.0161743,0.039978,-3.04993,0.0372314,0.0396729,0.0250244,0.0247192,-0.0149536,0.0256348,0.664368
91,3,0.0222778,0.0595093,0.0012207,-0.00579834,0.0494385,-3.00629,0.0445557,0.0286865,0.0158691,0.0158691,-0.0332642,0.0140381,0.651855
91,4,0.0152588,-0.0402832,0.00640869,-0.0305176,0.0610352,-2.93213,0.062561,0.0436401,0.0292969,0.0344849,-0.0289917,-0.0115967,0.628967
92,0,0.0201416,-0.015564,0.0164795,-0.00579834,0.0527954,-2.84546,0.0448608,0.0299072,0.0274658,0.0189209,-0.0219727,0.0152588,0.589905
92,1,0.015564,-0.0314331,0.0167847,0.000915527,0.0741577,-2.79633,0.039978,0.0588989,0.0302124,0.0286865,-0.0335693,0.00946045,0.55481
92,2,-0.0323486,-0.0234985,0.0106812,0.0112915,0.0613403,-2.72736,0.0415039,0.0463867,0.0268555,0.0244141,-0.0466919,0.0256348,0.513611
92,3,0.0149536,-0.00701904,0.0344849,-0.00335693,0.0811768,-2.63916,0.0317383,0.032959,0.0338745,0.0344849,-0.0228882,0.0170898,0.464478
92,4,0.0201416,0.0149536,0.0146484,-0.0125122,0.0491333,-2.59735,0.0457764,0.0808716,0.0390625,0.0302124,-0.0128174,-0.00183105,0.428467
93,0,0.039978,-0.0192261,0.00274658,0.00305176,0.0442505,-2.53723,0.03479,0.0177002,0.0296021,0.0201416,-0.015564,0.0152588,0.390015
93,1,0.00305176,-0.012207,0.0241089,-0.0186157,-0.0158691,-2.49939,0.0369263,0.0360107,0.0332642,0.0561523,-0.0247192,0.0161743,0.409851
93,2,0.0390625,-0.0119019,0.0128174,-0.0128174,-0.0408936,-2.43652,0.0411987,0.0408936,0.0210571,0.00244141,-0.027771,0.0238037,0.350037
93,3,0.00976562,0.0378418,0.0115967,0.0100708,-0.0390625,-2.37854,0.106201,0.0350952,0.0219727,-0.0302124,-0.015564,0.0210571,0.348816
93,4,0.032959,0.0170898,0.0088501,-0.0140381,-0.0189209,-1.63483,0.0286865,0.0531006,0.0198364,0.0231934,-0.00976562,0.0274658,0.354004
94,0,0.0247192,0.0518799,0.0210571,0.00488281,-0.0454712,-2.28607,0.0405884,0.0341797,0.0183105,0.0326538,-0.0363159,0.0338745,0.346375
94,1,0.0323486,0.0527954,0.0234985,-0.0222778,-0.0143433,-2.24731,0.0326538,-0.0192261,0.0231934,0.0256348,-0.0317383,0.0167847,-0.192566
94,2,0.0341797,0.0375366,0.0488281,0.000305176,-0.0341797,-2.19421,0.0415039,0.0289917,-0.0128174,0.0299072,-0.0350952,0.0640869,-0.0881958
94,3,0.0256348,0.0796509,0.015564,-0.00183105,-0.0637817,-2.0575,0.0289917,0.0415039,0.00854492,0.0326538,-0.0265503,0.0354004,0.147095
94,4,0.0299072,0.0405884,0.0195312,-0.00854492,-0.027771,-2.1048,0.0244141,0.0253296,0.0201416,0.0192261,-0.0134277,0.0164795,0.226746
95,0,0.0170898,0.0637817,0.00762939,-0.000915527,-0.0128174,-2.05658,0.0231934,0.0384521,0.022583,0.0234985,-0.027771,0.0170898,0.264587
95,1,0.0137329,0.0299072,0.00762939,0.0192261,0.0228882,1.37756,0.0140381,0.0421143,0.0131226,0.027771,-0.0244141,0.0106812,0.215149
95,2,0.0201416,0.00946045,0.0210571,-0.00854492,-0.0662231,3.29926,0.0375366,0.0390625,0.0177002,0.0302124,-0.0372314,0.0125122,0.2771
95,3,0.0308228,0.0247192,0.0234985,0.0119019,-0.0112915,3.30078,0.0253296,0.0323486,0.0259399,-0.00610352,-0.0344849,0.0219727,0.405884
95,4,0.0247192,0.0167847,0.0210571,-0.00427246,0.0137329,2.79175,0.0372314,0.0170898,0.0289917,0.0201416,-0.0210571,0.0195312,0.405579
96,0,0.0219727,0.020752,0.010376,-0.00396729,0.0335693,3.30383,0.0189209,0.0305176,0.0234985,0.0354004,-0.000915527,0.0228882,0.425415
96,1,0.0280762,0.0418091,0.0100708,-0.00976562,0.000305176,2.60437,0.0378418,0.00640869,0.0262451,0.0558472,-0.0308228,0.0161743,0.396423
96,2,0.0161743,0.0357056,0.0216675,0.00549316,0.0286865,0.966797,0.0344849,0.0283813,0.0244141,0.0241089,-0.0311279,0.015564,0.385742
96,3,0.0161743,0.0143433,0.00732422,0.0186157,0.0326538,3.28674,0.102539,0.038147,0.0299072,-0.0140381,-0.0271606,0.015564,0.374756
96,4,0.0109863,0.0149536,0.010376,0.00701904,0.00579834,3.32611,0.0405884,0.0344849,0.0262451,0.0335693,-0.038147,0.0140381,0.39093
97,0,-0.022583,0.00427246,0.0149536,0,0.0378418,2.02148,0.043335,0.0366211,0.0350952,0.0360107,-0.0445557,0.0280762,0.381165
97,1,0.0546265,0.0183105,0.078125,0.000610352,0.0192261,3.24371,0.03479,0.0408936,0.057373,0.0421143,-0.0418091,-0.00671387,0.369873
97,2,0.027771,0.017395,0.0454712,0.00152588,0.012207,3.1189,0.0442505,0.0357056,0.0253296,0.0378418,-0.0427246,0.0146484,0.306091
97,3,0.0161743,0.0125122,0.0234985,0.0292969,0.0735474,3.13232,0.0305176,0.0286865,0.0134277,0.0952148,-0.0250244,0.0170898,0.279846
97,4,0.0363159,0.0201416,0.0140381,-0.00915527,-0.0137329,3.02277,0.0170898,0.0390625,0.0439453,0.0360107,-0.0338745,0.0180054,0.0714111
98,0,0.0390625,0.0271606,0.0357056,0.0140381,0.0198364,2.9245,0.0463867,0.0323486,0.0335693,-0.0158691,-0.0308228,0.0335693,-0.00427246
98,1,0.027771,0.0219727,0.00976562,-0.0088501,0.015564,2.8064,0.0335693,0.0231934,0.00640869,0.0292969,-0.0186157,0.017395,-0.206604
98,2,0.0354004,0.0280762,0.022583,-0.00549316,-0.00671387,2.73865,0.0662231,0.03479,0.0308228,0.0170898,-0.0311279,0.0280762,-0.114746
98,3,0.03479,0.0228882,0.00823975,-0.00701904,0.00701904,2.64984,0.0363159,0.0286865,0.0292969,0.0213623,-0.0183105,0.00823975,-0.294189
98,4,0.0305176,0.00427246,0.0375366,-0.00671387,-0.000610352,2.5528,0.0305176,0.0415039,0.0448608,0.0335693,-0.0546265,0.0183105,-0.840454
99,0,0.0228882,0.0134277,0.0152588,-0.00274658,0.00610352,0.9375,0.0314331,0.0308228,0.057373,0.0369263,-0.0195312,0.0296021,-0.393372
99,1,0.0332642,0.0564575,0.00946045,0.000915527,0.00823975,0.565186,0.0390625,0.0311279,0.0195312,0.0314331,-0.0231934,0.017395,-1.01135
99,2,0.0317383,0.0180054,0.00793457,0.000915527,0.0860596,1.9632,0.0338745,0.0296021,0.0167847,0.0323486,-0.0259399,0.0305176,-0.717773
99,3,0.0231934,0.0299072,0.0344849,0.0311279,0.0689697,2.38953,0.020752,0.00244141,0.0247192,0.0350952,0.0119019,0.0222778,-1.64642
99,4,0.027771,0.0146484,0.0656128,0.017395,0.0689697,2.28119,0.0100708,0.0228882,0.0180054,0.0460815,-0.0238037,0.0680542,-1.58691
100,0,-0.0140381,0.0289917,0.0183105,0.0402832,0.0570679,2.23572,0.0125122,0.0228882,0.0238037,0.03479,-0.0308228,0.0167847,-1.21918
100,1,0.0286865,0.0131226,0.00579834,0.0430298,0.0582886,1.99646,0.0335693,-0.0134277,0.0405884,0.0357056,0.00335693,0.0286865,-0.852356
100,2,-0.00183105,0.017395,0.0219727,0.0500488,0.0332642,1.72546,0.0326538,0.0335693,0.0222778,0.0247192,-0.0299072,0.020752,-0.39917
100,3,0.0164795,0.0198364,0.00671387,0.0210571,0.0228882,1.46179,-0.015564,0.0259399,0.0210571,0.0189209,-0.0601196,0.0372314,-0.161133
100,4,0.0213623,0.0137329,0.0241089,0.03479,0.0186157,1.21155,0.0137329,0.0234985,0.0253296,0.038147,-0.0350952,0.0354004,0.000915527
101,0,0.00976562,0.0106812,0.0149536,0.0393677,0.0372314,1.01624,-0.128174,0.0317383,0.0460815,0.020752,-0.0311279,0.0244141,-0.931091
101,1,0.0320435,0.020752,-0.00701904,0.0350952,0.0213623,0.812683,-0.0759888,0.0210571,0.0198364,0.0143433,-0.0375366,0.0164795,-1.05011
101,2,0.0289917,0.000915527,0.00366211,0.0460815,0.0167847,0.603027,-0.00640869,0.0616455,0.0289917,0.0354004,-0.022583,0.0204468,-0.939026
101,3,0.0198364,0.0192261,0.0195312,0.0534058,-0.00732422,0.433655,-0.00244141,0.0378418,-0.0195312,0.0274658,-0.0323486,0.0195312,-0.804443
101,4,0.0204468,0.020752,-0.0177002,0.0585938,-0.0210571,0.263062,0.0509644,0.0167847,-0.00366211,0.0350952,-0.0308228,0.0265503,-0.767822
102,0,0.0323486,0.0247192,-0.00427246,0.0387573,-0.0308228,0.174561,0.00915527,0.0408936,0.032959,0.0393677,-0.0326538,0.0250244,-0.59967
102,1,0.0390625,0.0192261,0.0210571,0.0244141,-0.0695801,0.0537109,0.0717163,0.0231934,0.032959,0.027771,-0.0274658,-0.00183105,-0.421143
102,2,0.0317383,-0.000610352,0.0421143,0.022583,-0.0671387,-0.129395,0.0613403,0.0213623,0.0292969,0.038147,-0.0265503,0.00854492,0.0665283
102,3,0.0515747,0.00762939,0.0152588,-0.0186157,-0.0344849,-0.213623,0.0527954,0.0189209,0.0253296,0.0265503,-0.0201416,0.0134277,-0.346375
102,4,0.0164795,0.0234985,0.0274658,0.0296021,-0.0396729,-0.299683,0.0460815,0.020752,0.0256348,0.0238037,0.00305176,0.0222778,-0.00244141
103,0,0.0405884,0.00762939,0.0247192,0.0280762,-0.017395,-0.397034,-0.0415039,0.0231934,0.0286865,0.0186157,-0.0314331,0.0228882,0.327148
103,1,0.0299072,0.0579834,0.0161743,0.0283813,-0.0543213,-0.45929,-0.0088501,0.0439453,0.045166,0.0286865,-0.0354004,0.0183105,0.416565
103,2,0.0198364,0.0296021,0.0311279,0.0372314,0.00793457,-0.50293,0.0598145,0.0158691,0.0436401,0.032959,-0.0311279,0.0695801,0.0909424
103,3,0.0250244,0.0216675,0.0369263,0.032959,0.0460815,-0.574646,0.0595093,0.0234985,0.0457764,0.0201416,-0.0320435,0.0323486,0.265198
103,4,0.0369263,0.020752,0.0244141,0.050354,0.0366211,-0.627441,0.0646973,0.0360107,0.0488281,0.0170898,-0.0430298,0.0305176,0.664062
104,0,0.0271606,0.0354004,0.0524902,0.022583,0.0454712,-0.686035,0.0488281,0.0115967,0.0402832,0.020752,-0.0302124,0.0210571,0.80658
104,1,0.0442505,0.027771,0.0198364,0.0814819,0.0839233,-0.716248,0.0137329,0.0204468,0.0482178,0.0424194,-0.0167847,0.0262451,0.896606
104,2,0.0131226,0.0198364,0.0283813,0.0421143,0.108948,-0.766602,0.0491333,0.0198364,0.0292969,0.0302124,-0.0393677,0.0183105,1.08643
104,3,0.0198364,0.0338745,0.0125122,0.0445557,0.0848389,-0.810852,0.0500488,0.0256348,0.0518799,-0.00610352,-0.0360107,0.038147,1.20392
104,4,0.0271606,0.0296021,0.065918,0.0369263,-0.00244141,-0.758667,0.0512695,0.050354,0.0454712,0.0234985,-0.0396729,-0.0213623,1.19507
105,0,0.0283813,0.0305176,0.0161743,0.0473022,-0.088501,-0.785828,0.0460815,0.0198364,-0.0204468,0.0140381,-0.0454712,0.0268555,1.01257
105,1,0.0216675,0.0534058,0.0231934,0.0350952,0.0134277,-0.836487,0.0411987,0.0256348,0.0512695,0.0213623,-0.045166,0.0756836,0.628967
105,2,0.0271606,0.0158691,0.00671387,0.0201416,0.0219727,-0.822144,0.0302124,0.0161743,0.0311279,0.0332642,-0.0332642,0.0296021,0.652771
105,3,0.0588989,0.0323486,0.0427246,0.0186157,0.0170898,-0.799255,0.00793457,0.0137329,0.0256348,0.0524902,-0.0302124,0.0250244,0.742493
105,4,0.0366211,-0.0488281,0.0292969,0.0317383,-0.0262451,-0.761414,0.0231934,0.0286865,0.0213623,0.0363159,-0.0296021,0.0497437,0.817261
106,0,0.050354,0.0146484,-0.00457764,0.0219727,0.015564,-0.787354,0.0445557,0.0088501,0.0308228,0.0305176,-0.03479,0.03479,0.807495
106,1,0.0363159,0.0170898,0.0311279,0.0317383,-0.0308228,-0.751648,0.0250244,0.0134277,0.0497437,0.0149536,-0.0204468,-0.010376,0.791931
106,2,0.0396729,0.0256348,0.0241089,0.0387573,-0.0692749,-0.764771,0.0262451,0.0238037,0.0167847,0.03479,-0.0234985,0.0323486,0.466614
106,3,0.0338745,0.0204468,0.0259399,0.0656128,-0.0631714,-0.788574,0.0231934,0.0378418,0.0247192,0.0158691,-0.00274658,0.0308228,-0.872192
106,4,0.0350952,0.0271606,-0.00244141,0.000305176,-0.0540161,-0.810852,-0.0146484,0.0198364,0.0177002,0.0250244,-0.0222778,0.0286865,-0.417175
107,0,0.0183105,0.0311279,0.0305176,0.0344849,-0.0610352,-0.81604,0.0238037,0.0180054,0.0390625,0.0247192,0.0112915,0.017395,0.0750732
107,1,0.0268555,0.0311279,0.020752,0.0518799,-0.0143433,-0.724487,0.0454712,0.0109863,-0.0286865,0.00488281,-0.0213623,0.0588989,0.247498
107,2,0.0256348,0.0601196,0.0259399,0.045166,0.020752,-0.748901,0.015564,-0.000915527,0.0262451,0.0289917,0.0088501,0.00610352,0.336914
107,3,0.0387573,0.0198364,0.0256348,0.0671387,0.0308228,-0.759888,0.0231934,0.0219727,0.0204468,0.0234985,0.00488281,0.010376,0.406799
107,4,0.0387573,0.0357056,0.0405884,0.0469971,-0.000610352,-0.801086,0.0204468,0.0192261,0.0671387,0.0396729,-0.00976562,0.0268555,0.353699
108,0,0.0445557,0.0265503,-0.0283813,0.0582886,0.00366211,-0.710449,0.0244141,0.0280762,0.0241089,0.0299072,-0.00549316,0.0466919,0.351257
108,1,0.0195312,0.0299072,0.0177002,0.0482178,0.0378418,-0.718689,0.010376,0.0259399,0.0161743,0.0314331,-0.00579834,0.020752,-0.59082
108,2,0.0201416,0.0402832,0.00457764,0.0622559,0.0366211,-0.722351,0.0213623,0.00732422,0.00762939,0.0204468,0.00488281,0.0314331,-0.675354
108,3,0.06073,0.0402832,0.0189209,0.0384521,-0.000305176,-0.699158,0.0265503,0.0100708,0.0164795,0.0195312,-0.0143433,0.00793457,-0.790405
108,4,0.0366211,0.0302124,0.0720215,0.0390625,-0.000915527,-0.752869,0.0341797,0.0100708,0.0253296,0.017395,-0.0219727,0.017395,-0.857849
109,0,0.0411987,0.0372314,-0.0012207,0.057373,-0.00976562,-0.681458,0.0204468,0.00793457,0.0280762,0.0262451,-0.00640869,0.0326538,-0.420227
109,1,0.0106812,0.0402832,0.0146484,0.0546265,0.0640869,-0.678101,0.00610352,0.00976562,0.0189209,0.0186157,-0.0125122,-0.0131226,0.165405
109,2,0.0231934,0.0408936,0.0289917,0.0588989,-0.00640869,-0.668335,0.0213623,0.010376,0.0219727,0.0088501,-0.015564,0.00396729,0.380249
109,3,0.0134277,0.0283813,0.0125122,0.0445557,-0.0869751,-0.643616,0.0204468,0.00335693,0.0753784,0.0262451,-0.0231934,0.072937,0.427856
109,4,0.0247192,0.0262451,0.0201416,0.0344849,-0.0732422,-0.649414,0.0213623,0.0256348,0.0186157,0.0192261,0.0012207,0.0183105,0.482483
110,0,0.0305176,0.0222778,0.0183105,0.0460815,-0.0491333,-0.631409,0.0219727,0.0115967,0.0222778,0.0335693,0.00701904,0.022583,-0.0500488
110,1,0.0332642,0.0259399,0.0323486,0.0448608,-0.0238037,-0.570984,0.0177002,0.0106812,0.00671387,0.0189209,-0.0354004,0.0427246,-0.267334
110,2,0.022583,0.057373,0.0302124,0.0411987,0.0415039,-0.620422,0.0115967,0.010376,0.0259399,0.0274658,-0.0280762,0.0436401,-0.236816
110,3,0.039978,0.027771,0.0518799,0.032959,0.00457764,-0.596313,0.0363159,0.00244141,0.015564,0.0354004,-0.0344849,0.03479,-0.106201
110,4,0.0836182,0.0558472,0.0234985,0.0915527,0.000610352,-0.556946,0.00976562,0.0213623,0.0219727,0.0128174,-0.0280762,0.0161743,0.135193
111,0,0.0323486,0.0247192,0.0210571,0.0439453,0.0131226,-0.559998,-0.0302124,0.000915527,0.0201416,0.0247192,-0.0280762,0.0384521,0.342407
111,1,0.0396729,0.0354004,0.0363159,0.050354,0.0219727,-0.538025,-0.00854492,0.0195312,0.0274658,0.0238037,-0.0128174,0.0311279,-0.00671387
111,2,0.0186157,0.0634766,0.027771,0.043335,0.0637817,-0.496521,0.0192261,0.00488281,0.0265503,0.0405884,-0.0393677,0.0286865,-0.0546265
111,3,0.0344849,0.0180054,0.0305176,0.0405884,0.0610352,-0.482178,0.0109863,0.00610352,0.0332642,-0.0631714,-0.0497437,0.0271606,0.0247192
111,4,0.0241089,0.020752,0.0238037,0.0320435,0.0878906,-0.469666,0.0125122,-0.043335,0.0283813,0.0256348,-0.00579834,0.00701904,-0.554504
112,0,0.0299072,0.0320435,0.0338745,0.0366211,0.0842285,-0.474548,0.0216675,0.0115967,0.0012207,0.0241089,-0.0424194,0.0164795,-0.829468
112,1,0.0228882,0.0250244,0.0271606,0.0286865,0.0958252,-0.469971,0.032959,0.00610352,0.0268555,0.0143433,-0.0280762,0.0195312,-0.813904
112,2,0.0802612,0.0320435,0.0100708,0.0320435,0.0909424,-0.474854,0.0308228,0.0216675,0.0375366,-0.0314331,-0.0213623,0.0463867,-0.69519
112,3,0.0360107,0.0491333,0.0317383,0.00732422,0.062561,-0.439758,0.0167847,0.0210571,0.0164795,0.00579834,-0.0302124,0.022583,-0.658569
112,4,0.0180054,0.0204468,0.0314331,0.0561523,0.0802612,-0.415344,0.00213623,0.027771,0.0299072,0.0177002,-0.0253296,0.0256348,-0.587769
113,0,0.0262451,0.0280762,0.0421143,0.0262451,0.0738525,-0.395508,0.0262451,-0.00427246,0.0271606,0.0256348,-0.0341797,0.0241089,-0.481567
113,1,0.0192261,0.0109863,0.0292969,0.0256348,-0.00244141,-0.376587,0.012207,0.0119019,0.0195312,0.0292969,-0.0238037,0.038147,-0.395203
113,2,0.0302124,-0.0292969,0.0302124,0.0350952,0.124817,-0.384216,0.0234985,0.00579834,0.0222778,0.0296021,-0.0366211,0.0253296,-0.326538
113,3,0.022583,0.000610352,0.0296021,0.0286865,0.0469971,-0.329895,0.0115967,0.0170898,0.0143433,0.0228882,-0.0595093,0.0506592,-0.266113
113,4,0.00976562,-0.0424194,0.0299072,0.050354,0.0671387,-0.308533,0.0436401,0.00640869,0.0259399,0.0271606,-0.0253296,0.0292969,-0.223389
114,0,0.0299072,0.0231934,0.0183105,0.0338745,0.0430298,-0.28717,0.00823975,0.00579834,0.0088501,0.0354004,-0.0357056,0.0341797,-0.148926
114,1,0.0640869,0.0332642,0.0372314,0.0158691,0.00366211,-0.297852,0.0195312,-0.00183105,0.022583,0.0195312,-0.0344849,0.0311279,-0.115356
114,2,0.0164795,0.0247192,0.0311279,0.045166,-0.0274658,-0.292053,0.0137329,-0.0109863,0.0357056,0.0219727,-0.0183105,0.0247192,-0.0653076
114,3,0.0247192,0.0253296,0.0274658,0.0390625,-0.020752,-0.281067,0.0262451,0.0158691,0.0119019,0.0256348,-0.00274658,0.0335693,-0.0421143
114,4,0.0195312,0.0292969,0.0311279,0.0283813,-0.00793457,-0.286865,0.00732422,0.0192261,0.00640869,0.045166,-0.0231934,0.0238037,0.00335693
115,0,0.0238037,0.0109863,0.0231934,0.0305176,-0.0610352,-0.257874,0.0241089,0.0244141,0.0189209,0.0421143,-0.0375366,0.0387573,-0.0350952
115,1,0.0280762,0.0296021,0.0408936,0.0137329,-0.0268555,-0.266418,0.0405884,0.0250244,0.00671387,0.00244141,-0.0204468,0.0402832,0.0256348
115,2,0.0335693,0.0308228,0.0149536,0.0164795,-0.00213623,-0.248108,0.0302124,0.00793457,0.00213623,0,-0.0286865,0.0292969,0.125732
115,3,0.0320435,-0.00274658,0.0320435,0.0192261,-0.0170898,-0.246887,0.0256348,0.012207,-0.0012207,0.0350952,-0.0180054,0.0418091,0.0958252
115,4,0.0247192,0.0238037,0.0701904,0.0332642,0.0131226,-0.235596,0.0189209,0.0167847,0.0183105,0.0524902,-0.0244141,0.0323486,0.125732
116,0,0.0253296,0.0314331,0.0311279,0.038147,0.0326538,-0.241699,0.0326538,0.0106812,0,0.00701904,-0.0222778,0.0292969,0.14801
116,1,0.027771,0.00427246,0.0314331,0.0262451,0.0546265,-0.268555,0.0268555,0.00549316,0.00762939,0.0369263,-0.0283813,0.0491333,0.280762
116,2,0.0317383,-0.00305176,0.0216675,0.0177002,0.0183105,-0.267639,0.0314331,0.00396729,0.0271606,0.038147,-0.0305176,0.0311279,0.450745
116,3,0.0192261,0.0210571,0.0167847,0.015564,0.0234985,-0.260315,0.0216675,0.00396729,0.015564,0.0326538,-0.0167847,0.0274658,0.408325
116,4,0.0317383,0.0204468,0.0469971,0.0140381,0.0350952,-0.302734,0.0299072,0.0164795,0.022583,0.0317383,-0.0146484,0.0265503,0.203552
117,0,0.03479,0.00366211,0.0384521,0.00274658,-0.00640869,-0.230713,0.0274658,0.0244141,0.0250244,-0.0161743,-0.0183105,0.0280762,0.258179
117,1,0.0283813,0.0622559,0.0253296,-0.00183105,0.0741577,-0.183411,-0.0106812,-0.0177002,0.0170898,0.0341797,-0.0234985,0.0234985,0.698547
117,2,0.0366211,0.00854492,0.0308228,0.0247192,-0.0271606,-0.125732,-0.0131226,0.0265503,0.0234985,-0.0012207,-0.00427246,0.0326538,0.901794
117,3,0.0222778,0.00274658,0.0280762,0.0164795,-0.0289917,-0.0881958,0.0271606,-0.0088501,0.0177002,0.020752,-0.0262451,0.0204468,0.828857
117,4,0.0308228,0.0100708,0.038147,0.0137329,-0.020752,-0.0515747,0.032959,0.0552368,-0.0137329,0.0262451,-0.0274658,0.0482178,0.722656
118,0,0.0134277,0.00762939,0.0326538,0.0216675,-0.0296021,-0.0695801,0.0247192,0.00946045,0.0167847,0.0192261,-0.0161743,0.0384521,-0.0216675
118,1,0.022583,0.00366211,0.0405884,0.0302124,-0.093689,-0.0708008,-0.00762939,0.0222778,0.00671387,0.0106812,-0.0140381,0.0469971,-0.10376
118,2,0.027771,0.0158691,0.0317383,0.0299072,-0.0674438,-0.11261,0.0222778,0.0158691,0.0146484,0.06073,-0.0109863,0.032959,-0.114136
118,3,0.0158691,0.0488281,0.0457764,0.0231934,-0.0616455,-0.108948,0.0296021,0.00457764,0.0820923,0.0164795,-0.0283813,0.0234985,0.159607
118,4,0.0576782,0.043335,0.0256348,0.0149536,-0.0476074,-0.111694,0.0238037,0.0421143,0.0228882,0.0128174,-0.0311279,0.0357056,0.0753784
119,0,0.0283813,0.0335693,0.0741577,0.0305176,-0.0421143,-0.0595093,0.0405884,0.0140381,0.00183105,0.00701904,-0.0198364,-0.000915527,0.0787354
119,1,0.0250244,0.0299072,0.0836182,0.0149536,-0.0643921,-0.039978,0.017395,0.0265503,0.0213623,0.010376,-0.0161743,0.0286865,0.0369263
119,2,0.0253296,0.0341797,0.0262451,0.0149536,-0.00305176,-0.0698853,0.012207,0.0262451,0.00732422,0.0106812,-0.0274658,0.0231934,0.209961
119,3,0.0354004,0.0384521,0.0540161,0.0119019,0.0299072,-0.0616455,0.0195312,0.0183105,0.0125122,0.0259399,-0.0292969,0.0256348,0.207825
119,4,0.0314331,0.0299072,0.0305176,0.0271606,0.0216675,-0.0448608,0.0332642,0.0164795,0.0143433,0.0296021,-0.0292969,0.0195312,0.115967
120,0,0.0177002,0.0341797,0.0265503,0.0164795,0.0408936,-0.0463867,0.0302124,0.0146484,0.0131226,0.0100708,-0.0192261,0.0952148,0.175171
120,1,-0.0195312,0.0259399,0.0341797,-0.00915527,0.0445557,-0.0473022,0.0457764,0.0216675,0.00946045,0.0106812,-0.0201416,0.0238037,0.169678
120,2,0.0289917,0.0305176,0.0186157,0.0192261,0.0872803,-0.0259399,0.0183105,-0.0189209,0.00244141,0.00427246,-0.0219727,0.0357056,0.161743
120,3,-0.0189209,0.032959,0.0164795,0.0302124,0.0445557,-0.0201416,0.0222778,-0.00427246,0.00976562,0.0131226,-0.0366211,0.0183105,0.155945
120,4,0.0115967,0.010376,0.0247192,0.045166,0.0213623,-0.0177002,0.0268555,0.0177002,-0.00640869,-0.00823975,-0.0302124,-0.0195312,0.160217
121,0,0.027771,0.0244141,0.0302124,0.012207,0.0421143,-0.0363159,0.0189209,0.0250244,-0.00366211,0.017395,-0.0296021,0.0567627,0.138855
121,1,0.0137329,-0.00579834,0.0305176,0.0201416,0.0439453,-0.0357056,0.0247192,0.0500488,0.0143433,0.0189209,-0.0338745,0.027771,0.145874
121,2,0.0195312,0.0100708,0.0274658,0.0167847,0.0286865,-0.022583,0.0274658,0.0149536,0.0195312,0.015564,-0.0588989,0.027771,0.326538
121,3,0.0244141,0.020752,0.0769043,0.0244141,-0.00366211,-0.00427246,-0.00640869,0.0146484,-0.0527954,0.0186157,-0.0320435,0.0616455,0.269775
121,4,-0.0460815,0.0387573,0.0286865,0.0387573,-0.000915527,-0.0253296,0.0216675,0.0210571,0.00793457,0.0177002,-0.0137329,0.0289917,0.223389
122,0,0.0128174,0.0115967,0.0335693,0.022583,-0.0100708,-0.0106812,0.0302124,0.0299072,0.00640869,0.00457764,-0.0177002,0.0296021,0.0186157
122,1,0.00274658,0.0271606,0.0106812,-0.0369263,0.00366211,-0.015564,0.0314331,0.0213623,0.0265503,0.00213623,-0.0234985,0.0213623,-0.0186157
122,2,0.0372314,0.043335,0.0244141,0.0204468,-0.0100708,0.00366211,0.0430298,0.0238037,0.00671387,0.0259399,-0.0143433,0.00579834,0.169067
122,3,0.0250244,0.0357056,0.0814819,0.00427246,-0.00579834,0.0012207,0.0161743,0.0247192,0.0100708,0.039978,-0.0149536,0.020752,0.129089
122,4,0.0213623,0.067749,0.0112915,0.0177002,0.00732422,0.0588989,0.0393677,0.0149536,0.00671387,-0.0106812,-0.0283813,-0.015564,0.137329
123,0,0.0308228,0.0231934,0.0244141,-0.00305176,-0.000915527,0.00457764,0.0213623,0.0335693,0.0216675,0.0106812,-0.0210571,0.0180054,0.231628
123,1,0.0274658,0.0158691,0.0204468,0.0149536,-0.0134277,0.0320435,0.0231934,-0.0299072,0.0274658,0.00396729,-0.012207,0.00854492,0.234375
123,2,0.0317383,0.0271606,0.0204468,0.00701904,0.0350952,0.0466919,0.0216675,0.0210571,0.0146484,0.0268555,-0.0119019,0.0131226,0.143127
123,3,0.017395,0.0308228,0.0289917,0.00793457,0.0405884,0.0311279,0.0195312,0.0268555,0.00213623,0.00823975,-0.00183105,0.00640869,0.0891113
123,4,-0.000305176,0.0241089,0.0305176,0.0152588,0.0463867,0.0448608,0.0442505,0.0231934,0.0738525,0.000305176,-0.00946045,-0.0268555,0.0128174
124,0,0.0115967,0.0259399,-0.0341797,0.0158691,0.0674438,0.0689697,0.0396729,0.0213623,0.0714111,0.000915527,-0.00579834,0.0296021,-0.00701904
124,1,0.0228882,0.098877,0.0271606,0.015564,0.135498,0.032959,0.0250244,-0.0427246,0.00762939,0.0143433,0.000610352,0.0158691,0.0106812
124,2,0.00335693,0.0112915,0.0234985,0.00671387,0.0595093,0.0421143,0.0424194,0.0131226,0.00701904,0.010376,-0.00335693,0.015564,0.0164795
124,3,0.0183105,0.00366211,0.0137329,0.017395,0.0704956,0.0360107,0.0244141,0.0241089,-0.00244141,0.0119019,-0.0250244,0.0302124,-0.0012207
124,4,0.0143433,0.0180054,0.0186157,0.012207,0.0402832,0.0177002,0.0143433,0.0305176,0.0109863,0.0274658,-0.0222778,0.012207,-0.0250244
125,0,0.0146484,0.0646973,0.0271606,0.0106812,-0.0131226,0.027771,0.0402832,0.0744629,0.0161743,0.0170898,-0.0170898,0.020752,0.00701904
125,1,0.00854492,-0.0274658,0.0418091,0.0195312,0.101929,0.0262451,0.027771,0.0262451,0.0189209,0.0128174,-0.0088501,0.0161743,0.0134277
125,2,0.00915527,-0.00335693,0.0808716,0.0134277,0.0524902,-0.0244141,0.0302124,0.0323486,0.0177002,0.0192261,-0.0259399,0.0198364,0.0195312
125,3,0.0436401,0.0131226,0.0189209,-0.0125122,0.0482178,0.0457764,0.0323486,0.0134277,0.0170898,-0.0292969,-0.00793457,0.0183105,0.101624
125,4,0.0170898,0.0146484,0.0411987,0.00152588,0.0180054,0.00579834,0.0283813,0.0164795,0.0234985,0.0170898,-0.0238037,0.0308228,0.0390625
126,0,0.0216675,-0.0115967,0.0241089,0.00305176,-0.0115967,0.0228882,0.00671387,0.0354004,0.0311279,0.045166,-0.0274658,0.0158691,0.0415039
126,1,-0.00274658,0.0109863,0.022583,-0.0115967,0.0274658,0.0463867,0.0125122,0.0292969,0.0253296,0.010376,-0.0119019,0.00335693,0.0524902
126,2,0.0234985,0.0109863,0.0299072,0.0128174,0.0146484,0.050354,0.043335,0.0262451,0.0183105,0.0244141,-0.00915527,0.012207,0.0674438
126,3,0.027771,0.0360107,0.0753784,0.00793457,0.0344849,0.0527954,0.0363159,0.0198364,0.0262451,0.0125122,-0.0192261,-0.0527954,0.0402832
126,4,0.0134277,0.0296021,0.0152588,0.00976562,0.0119019,0.0604248,0.0375366,0.0259399,-0.0253296,0.00488281,-0.0149536,0.043335,0.0460815
127,0,0.0204468,0.0170898,0.0158691,0.00518799,0.0204468,0.0619507,0.0320435,0.0280762,0.0473022,0.0164795,-0.00793457,0.0204468,0.0396729
127,1,0.0189209,0.0341797,0.0177002,0.00335693,0.0210571,0.164795,0.0244141,0.032959,0.0210571,0.00366211,-0.0213623,0.00549316,0.0622559
127,2,-0.0253296,0.012207,0.0195312,-0.0146484,0.0152588,0.153503,0.0534058,0.0238037,0.0222778,-0.0378418,-0.0500488,0.00610352,0.0384521
127,3,0.0167847,0.0250244,0.0213623,0.0131226,0.00396729,0.166321,0.0357056,0.0326538,0.00762939,0.0119019,-0.0302124,0.0372314,0.0604248
127,4,0.00762939,0.0448608,0.0259399,0.0167847,0.0473022,0.151062,0.0274658,0.0335693,-0.00762939,0.00305176,-0.0177002,0.0100708,0.0448608
128,0,0.00946045,0.0488281,0.0247192,0.00671387,0.072937,0.115051,0.0427246,0.0259399,0.027771,0.0106812,-0.0192261,-0.000610352,0.0769043
128,1,0.0137329,0.0665283,0.0283813,0.0210571,0.0552368,0.0631714,0.022583,-0.000610352,0.0375366,-0.00213623,-0.0247192,-0.00152588,0.0802612
128,2,0.00823975,0.0283813,0.0152588,0.0131226,0.0961304,0.0512695,0.0320435,0.0109863,0.0213623,0.0210571,0.0177002,0.0161743,0.071106
128,3,0.0228882,0.0119019,0.0378418,0.0299072,0.0650024,0.0576782,0.00976562,0.0180054,0.0109863,-0.0222778,-0.0125122,0.022583,0.0671387
128,4,-0.0189209,0.0088501,0.0292969,0.0509644,0.0534058,0.0686646,0.0360107,0.00396729,0.0253296,0.0131226,-0.0256348,0.012207,0.0747681
129,0,0.0146484,0.0183105,0.00457764,-0.00213623,0.0311279,0.0897217,0.0256348,0.0332642,0.0271606,0.00427246,-0.0201416,-0.0289917,0.0695801
129,1,0.06073,0.0259399,0.0210571,0.0238037,0.045166,0.0817871,0.0201416,0.0341797,0.0100708,0.0112915,0.010376,0.00518799,0.0537109
129,2,0.015564,0.00701904,0.0106812,0.0115967,0.0552368,0.0534058,0.0161743,-0.0256348,0.0445557,0.0201416,-0.043335,0.00793457,0.0622559
129,3,0.0152588,0.0213623,0.0198364,0.0134277,0.038147,0.0820923,0.0286865,0.0119019,0.0521851,0.0299072,-0.0201416,-0.0292969,0.0790405
129,4,0.027771,0.0344849,-0.0408936,0.0247192,0.0265503,0.128784,0.00488281,0.0323486,-0.0164795,0.0216675,-0.0189209,0.0186157,0.111084
130,0,0.0195312,0.0201416,0.0180054,0.00610352,0.020752,0.120239,0.0360107,0.0360107,0.0234985,0.00427246,-0.0170898,0.00244141,0.144653
130,1,-0.000610352,0.0183105,0.045166,0.00335693,0.0363159,0.105896,0.0341797,0.0335693,0.0247192,-0.00854492,-0.0177002,0.0131226,0.158386
130,2,0.00915527,0.0115967,0.0143433,-0.00915527,0.00915527,0.10498,0.038147,0.0180054,0.0137329,0.0289917,-0.0192261,0.012207,0.202026
130,3,0.00396729,0.00732422,-0.0158691,0.0286865,0.00396729,0.157776,0.0344849,0.0125122,0.0567627,0.0134277,-0.00640869,-0.0137329,0.207214
130,4,0.0198364,-0.0363159,0.0152588,0.0115967,0.0012207,0.120239,0.0302124,0.0894165,0.0262451,0.0265503,-0.00946045,0.022583,0.195923
131,0,0.0167847,-0.0494385,0.0170898,0.00762939,0.0506592,0.111389,0.039978,0.027771,0.0408936,0.0164795,-0.0238037,-0.00183105,0.177307
131,1,0.00671387,0.0238037,0.0280762,0.0320435,-0.0164795,0.129089,0.0286865,0.0241089,0.0186157,0.00915527,0.0112915,-0.00488281,0.187683
131,2,0.00640869,0.0201416,0.0326538,0.0323486,0.0231934,0.115662,0.0231934,0.0146484,0.0112915,0.020752,-0.020752,0.0137329,0.179749
131,3,0.0228882,0.0100708,-0.0152588,0.0198364,0.0234985,0.0946045,0.0228882,0.0354004,0.0283813,0.00793457,-0.0106812,0.010376,0.203552
131,4,-0.0344849,0.0131226,0.0186157,0.0320435,0.0445557,0.102539,0.0296021,0.0106812,0.0216675,0.00823975,-0.045166,0.00823975,0.18219
132,0,0.0137329,0.0189209,0.000610352,0.0128174,0.0912476,-2.66327,0.0283813,0.017395,0.0256348,0.000305176,-0.0134277,-0.0405884,0.164795
132,1,0.0146484,0.0109863,-0.00976562,0.0201416,0.0708008,-2.71545,0.0280762,0.0164795,0.0198364,0.022583,-0.0314331,0.00946045,0.169983
132,2,0.0088501,0.0186157,0.0149536,0.0216675,0.106506,-2.6413,0.0323486,0.0244141,0.0234985,0.0125122,0.00854492,-0.00579834,0.158691
132,3,0.0357056,0.0183105,0.0299072,0.0134277,0.109253,-2.58514,-0.0134277,0.0164795,0.0369263,0.0378418,-0.0216675,0.0109863,0.153198
132,4,0.0125122,0.0088501,-0.0177002,0.0375366,0.0802612,-2.52258,0.0543213,0.015564,0.0369263,0.00579834,-0.022583,0.0112915,0.186157
133,0,0.0128174,0.000610352,0.0167847,0.0335693,0.0488281,-0.733337,0.0335693,0.0296021,0.0271606,-0.0323486,-0.0201416,0.00854492,-0.0231934
133,1,0.0112915,0.0427246,0.0192261,0.0408936,0.0588989,3.30872,0.0112915,0.0656128,0.00976562,0.00732422,-0.0170898,0.00305176,-0.197144
133,2,0.0216675,0.00366211,0.0210571,0.032959,0.0827026,-0.513611,0.0238037,0.0283813,0.0134277,0.0161743,-0.0302124,0.0137329,-0.142822
133,3,-0.0320435,0.0125122,0.0317383,0.0259399,0.0619507,-2.46338,0.0228882,0.0552368,0.0192261,0.0210571,-0.0354004,0.0283813,-0.0506592
133,4,0.0106812,0.0485229,0.00915527,0.0308228,0.0527954,-1.05865,0.0338745,0.0134277,0.00762939,0.0198364,-0.0183105,0.032959,-0.00183105
134,0,0.0167847,0.00488281,0.0247192,0.0210571,0.032959,0.225525,0.0305176,0.022583,-0.00457764,0.0119019,-0.0271606,0.0216675,0.0930786
134,1,0.0457764,0.00854492,0.00823975,-0.000915527,0.0299072,1.66077,0.0531006,0.0378418,0.0219727,-0.00823975,-0.0247192,0.0167847,0.00213623
134,2,0.0204468,0.00549316,0.0228882,0.000915527,0.0100708,2.00745,0.0411987,0.038147,-0.0296021,0.0204468,-0.0186157,0.00854492,0.0418091
134,3,0.0265503,0.0204468,0.0387573,0.0134277,0.0115967,1.44043,0.0317383,0.0219727,0.00854492,0.0338745,-0.0170898,0.0119019,0.103455
134,4,0.0189209,-0.0143433,0.0100708,0.0195312,0.00549316,-2.45392,0.0302124,0.0308228,0.045166,0.017395,-0.0109863,0.0231934,0.0735474
135,0,0.0167847,0.0106812,0.0228882,0.0192261,0.00244141,-2.49237,0.0454712,0.0274658,0.0296021,0.0222778,0.0128174,0.0128174,0.0314331
135,1,0.017395,0.00701904,0.00854492,0.0262451,-0.0219727,-1.45203,0.0189209,0.0100708,0.0167847,0.0241089,-0.0186157,0.0259399,-0.0457764
135,2,0.0466919,0.00366211,0.0186157,0.0158691,0.00549316,-2.39105,0.0265503,0.0241089,0.0271606,0.0265503,-0.0390625,0.0119019,-0.0518799
135,3,0.020752,0.0299072,-0.0170898,0.0244141,-0.0579834,-0.867615,0.020752,-0.0405884,0.0253296,0.00183105,-0.0259399,0.0234985,-0.0805664
135,4,0.0183105,-0.00457764,0.0262451,0.0216675,-0.0695801,-1.88751,0.0201416,-0.0131226,0.0140381,0.0134277,-0.0222778,0.0177002,-0.0717163
136,0,-0.00640869,0.0012207,0.0189209,0.0234985,-0.0393677,0.703735,0.0338745,0.0265503,0.0357056,0.0588989,-0.015564,0.0112915,-0.045166
136,1,0.0152588,0.0152588,0.022583,0.0250244,0.0363159,3.1781,0.032959,0.020752,0.0253296,0.0152588,-0.0228882,0.0158691,-0.0790405
136,2,0.0769043,0.0012207,0.0161743,0.0012207,0.0567627,3.30841,0.0378418,0.032959,0.0238037,0.00610352,-0.0323486,0.0308228,-0.043335
136,3,0.0286865,-0.00976562,0.00915527,0.0518799,0.0512695,2.86774,0.0439453,0.0213623,0.0234985,0.0317383,-0.0311279,0.0131226,-0.0253296
136,4,0.0231934,-0.00518799,0.109253,0.0247192,0.0366211,1.02966,0.038147,0.0228882,0.022583,0.0247192,-0.0375366,0.0250244,-0.0579834
137,0,0.0289917,-0.0143433,0.0338745,0.0280762,0.0338745,2.56622,0.0262451,0.0109863,0.0183105,0.0158691,-0.0366211,0.0292969,-0.166321
137,1,0.00671387,-0.00823975,0.0500488,0.0149536,0.065918,3.3017,0.0332642,0.0302124,0.0189209,0.0137329,-0.0259399,0.0262451,-0.122986
137,2,0.0131226,0.00274658,-0.00213623,0.0894165,0.0543213,3.32275,0.0430298,0.0228882,0.0213623,-0.00549316,0.00213623,0.0283813,-0.12207
137,3,0.0088501,0.0170898,0.00701904,0.0231934,0.00183105,3.38654,0.0344849,0.0192261,0.0735474,0.0167847,-0.0305176,-0.0387573,-0.138245
137,4,0.0408936,-0.00946045,0.0088501,0.083313,-0.0479126,3.30017,0.0634766,0.0271606,0.0332642,0.0164795,-0.0283813,0.0231934,-0.144653
138,0,0.0210571,-0.0146484,-0.0137329,0.0119019,-0.0860596,2.96997,0.0350952,0.0549316,0.0192261,0.0177002,-0.0143433,0.00549316,-0.0537109
138,1,0.020752,-0.0228882,0.0271606,0.0265503,-0.0469971,0.58136,0.0299072,0.0265503,0.0289917,0.00701904,-0.0253296,0.0192261,-0.0531006
138,2,0.0100708,0.00213623,-0.0213623,0.0238037,-0.0393677,-2.60742,0.0515747,0.0125122,-0.000915527,0.0372314,-0.015564,0.0512695,-0.020752
138,3,0.0201416,0.0161743,0.010376,0.0415039,-0.0512695,-1.97083,0.0430298,0.0378418,0.0369263,0.0164795,-0.012207,0.0466919,-0.0228882
138,4,0.0201416,0.0460815,0.0689697,0.027771,-0.0308228,-2.78473,0.0292969,0.015564,0.0256348,0.0195312,-0.0106812,0.0137329,-0.0430298
139,0,0.00823975,0.0210571,0.00762939,0.0585938,-0.0222778,-2.8772,0.0259399,0.0393677,0.0149536,0.0238037,-0.0189209,0.0161743,-0.143433
139,1,0.0250244,0.0628662,0.0183105,0.0473022,-0.00549316,-2.76703,0.0335693,0.0238037,0.0360107,0.00183105,-0.00762939,0.032959,-0.122681
139,2,0.045166,0.105591,0.0131226,0.0131226,0.0393677,-2.73682,0.0305176,0.0189209,0.0390625,0.0296021,-0.00976562,0.0201416,-0.123901
139,3,0.0454712,0.0939941,0.0222778,0.0189209,0.0570679,-2.68188,0.0283813,0.0198364,0.0231934,0.0238037,-0.0283813,0.0164795,-0.0949097
139,4,-0.0204468,0.0524902,0.0247192,0.0350952,0.0231934,-2.57385,0.0222778,0.0299072,0.0195312,0.0274658,-0.0448608,0.0253296,-0.0292969
140,0,0.0167847,0.0549316,0.010376,0.0369263,0.065918,-2.48901,0.0241089,0.0360107,0.0384521,0.0405884,-0.0241089,0.0350952,-0.0271606
140,1,0.0317383,0.045166,0.0570679,0.0213623,0.0311279,-2.37213,0.0393677,0.0253296,0.0338745,0.0366211,-0.0253296,0.0204468,-0.0701904
140,2,0.0201416,0.0445557,0.0146484,0.017395,0.0692749,-2.27234,0.032959,0.0372314,0.0314331,0.0439453,0.00427246,0.0167847,-0.0390625
140,3,0.0286865,0.0570679,0.0119019,0.0222778,0.0332642,-2.22382,0.0430298,0.0143433,0.0430298,-0.00244141,-0.0311279,0.0140381,-0.120544
140,4,0.015564,0.0372314,-0.00640869,0.0445557,0.0588989,3.19519,0.0283813,0.0354004,0.0265503,0.0274658,-0.0262451,0.0140381,-0.0570679
141,0,0.0259399,0.0274658,-0.00762939,0.0372314,0.0427246,3.32153,0.0317383,0.0268555,0.0537109,0.0256348,-0.0283813,-0.0146484,-0.0753784
141,1,0.0186157,0.0219727,-0.00427246,0.0350952,0.0350952,3.30505,0.0253296,0.0241089,0.0128174,0.0210571,-0.020752,-0.00701904,-0.0772095
141,2,0.0292969,0.0164795,0.017395,0.0454712,0.0320435,3.31848,0.00701904,0.0320435,0.0946045,0.0253296,-0.0253296,-0.0286865,-0.0701904
141,3,0.0134277,0.0125122,-0.0286865,0.0354004,0.03479,3.29926,0.0390625,0.0259399,0.0350952,0.0350952,-0.0283813,0.0210571,-0.0643921
141,4,0.0244141,-0.0274658,0.0177002,0.0265503,0.0454712,3.30627,0.0405884,0.0271606,0.0427246,0.0250244,-0.00335693,0.0424194,-0.0628662
142,0,0.0302124,0.00244141,-0.00457764,0.0570679,0.0497437,3.30841,0.0112915,0.0253296,0.0286865,0.072937,-0.0192261,0.0183105,-0.0619507
142,1,0.06073,-0.00396729,-0.0100708,0.0250244,0.0338745,3.31238,0.0247192,0.0262451,0.0338745,0.0283813,-0.00671387,0.0186157,-0.0570679
142,2,0.0390625,-0.0186157,0.0109863,0.0497437,-0.0177002,3.32336,-0.0128174,0.0439453,0.0378418,0.0918579,-0.012207,0.0137329,-0.0982666
142,3,0.0167847,-0.000305176,0.0125122,0.0137329,-0.0128174,-0.176392,0.0308228,0.0372314,0.022583,0.0274658,-0.0283813,0.0402832,-0.0561523
142,4,0.0384521,-0.0106812,-0.00823975,0.0274658,-0.0616455,-2.68066,0.0192261,0.050354,0.017395,0.0292969,-0.00793457,0.0167847,-0.0292969
143,0,0.0222778,-0.00488281,0.0109863,0.0430298,-0.0106812,-1.83777,0.0250244,0.0247192,-0.022583,0.0271606,-0.0320435,0.0222778,-0.0131226
143,1,0.0509644,-0.00701904,0.0119019,0.0109863,-0.0146484,2.25891,-0.0228882,0.0292969,0.0164795,0.0735474,-0.0302124,0.0170898,-0.0558472
143,2,0.0268555,0.0119019,0.022583,0.039978,-0.0183105,3.32092,0.0354004,0.0372314,0.0189209,0.0216675,-0.0244141,0.0354004,-0.0125122
143,3,0.0418091,0.0543213,0.0222778,0.0222778,-0.00335693,3.24402,0.022583,0.0161743,0.0341797,0.0787354,-0.0326538,0.0088501,0.00335693
143,4,0.012207,0.0430298,0.0296021,0.0442505,-0.012207,2.91351,0.00579834,0.0183105,0.0253296,0.0253296,-0.0106812,0.0332642,0.00946045
144,0,0.0476074,0.0457764,-0.00244141,0.0177002,-0.0100708,2.8656,0.0146484,0.0411987,0.0338745,-0.00579834,-0.0167847,0.0241089,0.0088501
144,1,0.0213623,0.0430298,0.00976562,0.0262451,-0.00732422,1.98364,0.00671387,0.0338745,0.0280762,0.0143433,-0.0283813,0.0204468,0.0396729
144,2,0.0271606,0.0479126,0.00976562,0.0283813,-0.0158691,-0.115051,0.017395,0.0311279,0.0430298,0.0216675,-0.027771,0.0808716,0.0616455
144,3,0.0183105,0.0537109,-0.00366211,0.0247192,0,2.26227,0.0241089,0.0823975,0.0436401,0.0271606,-0.038147,0.0216675,0.0543213
144,4,0.0222778,0.0335693,0.0683594,0.0332642,0.00213623,2.10144,0.0195312,0.0259399,0.0741577,0.0292969,-0.0408936,0.0198364,0.0558472
145,0,0.0201416,0.0250244,0.0134277,0.0195312,-0.00457764,2.07458,0.0198364,0.0234985,0.0393677,0.010376,-0.0259399,0.0152588,0.0692749
145,1,0.0299072,0.0143433,-0.000610352,0.0198364,0.0149536,-1.23199,0.0152588,0.0668335,0.0332642,0.0262451,-0.0442505,0.0305176,0.0875854
145,2,0.0280762,-0.0408936,0.0140381,0.0265503,0.0106812,-0.1651,0.0152588,0.0210571,0.0299072,0.0292969,-0.032959,-0.0231934,0.0637817
145,3,0.022583,0.0350952,0.00762939,0.0305176,-0.0256348,-2.57782,0.0244141,0.0424194,0.0439453,0.0204468,-0.0350952,0.012207,0.0595093
145,4,0.020752,0.0369263,-0.00976562,0.0274658,0.010376,-2.78076,0.0186157,0.0308228,0.0311279,0.0228882,-0.0372314,0.00305176,0.0473022
146,0,0.017395,0.0424194,0.00427246,0.017395,0.00488281,-3.03253,0.0250244,0.0140381,0.0146484,0.0222778,-0.00549316,0.000610352,0.0613403
146,1,0.0112915,0.0473022,0.00183105,0.0152588,0.00488281,-3.17902,0.0192261,0.0384521,0.0143433,0.0189209,-0.0332642,0.0247192,0.0714111
146,2,0.0247192,0.0341797,0.0146484,0.00427246,0.0228882,-3.19244,0.0622559,0.0231934,0.0128174,0.0354004,-0.0289917,0.0183105,0.0546265
146,3,0.03479,0.0308228,0.000915527,0.0228882,0.00793457,-3.13904,0.027771,0.0280762,0.00549316,0.0131226,-0.0418091,0.0134277,0.0488281
146,4,0.0350952,0.057373,0.0189209,0.0201416,0.015564,-3.00537,0.00946045,0.039978,0.0216675,0.0183105,-0.0366211,0.0271606,0.0372314
147,0,0.0143433,0.0323486,0.0314331,0.00396729,0.012207,-2.901,0.010376,0.0421143,0.0183105,0.0228882,-0.0335693,0.0210571,0.0747681
147,1,0.0231934,0.0747681,0.010376,0.0180054,0.0198364,-2.78839,0.0152588,0.0299072,0.0241089,0.0180054,-0.027771,0.0387573,0.0668335
147,2,0.0405884,0.0238037,-0.0454712,0.010376,0.0241089,-2.6474,0.017395,0.0369263,0.0326538,0.010376,-0.0372314,0.0335693,0.0698853
147,3,0.015564,0.0378418,-0.00183105,0.0201416,0.0146484,-0.0204468,0.0299072,0.0283813,0.0170898,0.0317383,-0.0418091,0.0250244,0.0357056
147,4,0.0186157,0.0366211,-0.0415039,0.0137329,0.0210571,-2.27142,0.0274658,0.0393677,0.0170898,0.0341797,-0.0363159,0.0527954,0.057373
148,0,0.0256348,0.0222778,0.0259399,0.0088501,0.0271606,-2.47589,0.0164795,0.0189209,0.00793457,0.0405884,-0.0228882,0.0439453,0.0457764
148,1,0.0161743,0.0131226,-0.022583,0.0241089,0.0216675,-2.42004,0.0241089,0.0292969,0.0271606,0.0335693,-0.0357056,0.0726318,0.0479126
148,2,0.0250244,0.017395,0.00915527,0.00305176,0.0262451,1.56006,0.017395,0.0393677,0.0363159,0.0341797,-0.0286865,0.0384521,0.0515747
148,3,0.032959,0.0128174,0.0256348,0.0158691,0.0466919,1.55518,0.0302124,0.0558472,0.0311279,0.0378418,-0.0292969,0.0408936,0.0393677
148,4,0.0158691,-0.00274658,0.0286865,0.010376,0.0311279,-0.401917,0.0152588,0.0128174,0.0119019,0.0439453,-0.0317383,0.0280762,0.0378418
149,0,0.0308228,0.0201416,0.0112915,0.00823975,0.0280762,-1.36963,0.0234985,0.017395,0.0128174,0.0418091,-0.0366211,0.00488281,0.0442505
149,1,0.0524902,-0.00488281,0.020752,0.0152588,0.015564,-1.39954,0.00488281,0.0454712,0.0161743,0.0540161,-0.0442505,0.0219727,0.043335
149,2,-0.000915527,0.0183105,0.017395,0.0222778,0.0100708,1.41174,0.0323486,0.0216675,0.00854492,0.0308228,-0.0527954,0.0296021,0.0515747
149,3,0.0140381,0.0128174,0.017395,0.0106812,0.0479126,1.3089,0.0201416,0.0177002,0.0152588,0.0366211,-0.0479126,0.0332642,0.0463867
149,4,0.0286865,0.00793457,0.0146484,0.022583,0.0790405,0.952759,0.0192261,0.0338745,0.012207,0.0360107,-0.0106812,0.032959,0.0476074
150,0,0.0241089,0.00701904,0.032959,0.0137329,0.0543213,2.59094,0.0109863,0.0204468,0.00701904,0.0323486,-0.0192261,0.0268555,0.0430298
150,1,0.0308228,0.0213623,0.0201416,-0.0338745,0.0872803,3.3075,0.0186157,0.0210571,0.0332642,0.0875854,-0.0344849,0.020752,0.0869751
150,2,0.0436401,0.0100708,0.022583,0.00701904,0.0463867,3.27209,0.000915527,0.032959,0.0152588,0.0369263,-0.0491333,0.0213623,0.0561523
150,3,0.0320435,0.0296021,0.0402832,0.00518799,0.0216675,3.30627,0.0177002,0.032959,0.020752,0.0317383,-0.0299072,0.0482178,0.0595093
150,4,0.0286865,0.0460815,0.0241089,0.0134277,0.0543213,3.30139,0.0244141,0.0244141,0.0170898,0.0378418,-0.0344849,0.050354,0.0439453
151,0,0.0338745,0.0466919,0.0195312,0.0106812,0.0305176,3.29987,0.0247192,-0.00610352,0.0219727,0.0466919,-0.0299072,0.032959,-0.0292969
151,1,-0.015564,0.0415039,0.0186157,0.045166,0.00640869,2.86591,0.0195312,0.0201416,0.022583,0.0317383,-0.0265503,0.0280762,0.043335
151,2,0.0289917,0.0390625,0.0177002,0.00427246,0.0546265,2.44934,0.0088501,0.0146484,0.0558472,0.0357056,-0.0338745,0.0344849,0.0497437
151,3,0.0289917,0.0308228,0.03479,-0.00335693,0.0546265,0.52887,0.0140381,0.0222778,0.0442505,0.0463867,-0.0405884,0.0259399,0.0408936
151,4,0.0958252,0.0292969,0.0244141,-0.012207,0.0604248,2.62512,0.0106812,0.0177002,0.0274658,0.0546265,-0.0604248,0.0350952,-0.012207
152,0,0.0234985,0.022583,0.017395,0,0.0561523,3.02338,0.00488281,-0.00427246,0.103149,0.0357056,-0.0299072,0.0317383,0.0299072
152,1,0.0317383,0.017395,-0.00610352,0.000915527,0.0454712,2.94006,0.0088501,0.027771,0.0256348,0.0390625,-0.0302124,0.0271606,0.0341797
152,2,0.0311279,0.0363159,0.0308228,0.00549316,0.0747681,2.83508,0.000915527,0.0204468,0.0280762,0.0256348,-0.0256348,0.0170898,0.0411987
152,3,0.0256348,0.0466919,0.0354004,-0.00213623,0.0976562,2.74109,0.00976562,0.0140381,0.0396729,0.0393677,-0.0292969,0.0317383,0.0408936
152,4,0.027771,0.0137329,0.017395,-0.00427246,0.0820923,2.38342,0.0189209,0.0244141,0.0183105,0.0408936,-0.0238037,0.0350952,0.0384521
153,0,0.0479126,0.0253296,0.0308228,0.0424194,0.0836182,0.874329,0.00640869,0.0112915,0.0219727,0.0262451,-0.0201416,0.0332642,0.0372314
153,1,0.0265503,0.0299072,0.0311279,0.0125122,0.0671387,-1.02631,0.0253296,0.0341797,0.0253296,0.0396729,-0.0305176,0.0292969,0.0430298
153,2,0.0177002,0.0170898,0.0405884,0.0119019,0.0546265,2.36237,0.0125122,0.017395,0.0164795,0.0317383,-0.0296021,0.0393677,0.0445557
153,3,0.0289917,0.0332642,0.0296021,0.0186157,0.0314331,2.45544,-0.000915527,0.010376,0.0183105,-0.0457764,-0.0393677,0.0274658,-0.0253296
153,4,0.0314331,0.0183105,0.0204468,0.0131226,0.0189209,2.38617,0.017395,-0.0317383,0.0238037,0.0164795,-0.0613403,0.0183105,0.0500488
154,0,0.103455,-0.015564,0.0421143,-0.00762939,-0.0115967,2.28363,0.0222778,0.015564,0.010376,0.0167847,-0.0375366,0.0299072,0.0466919
154,1,0.0561523,0.00579834,0.022583,0.0302124,-0.0170898,2.14752,0.00213623,0.0149536,0.0149536,-0.0131226,-0.0430298,0.0299072,-0.00488281
154,2,0.0198364,-0.00244141,-0.00518799,0.0161743,-0.0158691,1.8338,0.00640869,0.00823975,0.00640869,0.0491333,-0.0363159,0.0320435,0.0494385
154,3,0.03479,-0.00213623,0.0411987,0.0167847,-0.0326538,1.93817,0.0164795,0.010376,0.039978,0.0350952,-0.0271606,0.000610352,0.06073
154,4,0.0210571,-0.00427246,0.057373,0.0189209,-0.0201416,-0.392456,0.00793457,0.0216675,0.017395,0.0088501,-0.0338745,0.038147,0.0598145
155,0,0.0259399,0.0158691,0.0305176,0.0152588,-0.020752,-1.61285,0.00305176,0.0195312,0.0106812,0.0375366,-0.0259399,0.0320435,0.0363159
155,1,0.0372314,0.0588989,0.0280762,0.0296021,-0.0250244,-3.15033,0.0088501,0.0088501,-0.0479126,0.0314331,-0.0317383,0.0500488,0.0515747
155,2,0.0366211,0.0177002,0.0317383,0.0158691,-0.0234985,-3.19885,-0.0134277,0.010376,0.00762939,0.0466919,-0.0274658,0.027771,0.0222778
155,3,0.0366211,0.0445557,0.0314331,0.020752,-0.00946045,-3.18726,0.0177002,0.020752,0.0170898,0.0222778,-0.0140381,0.0292969,0.0112915
155,4,0.0375366,0.03479,0.0289917,0.0186157,0.00762939,-3.19183,0.010376,0.0161743,0.0125122,0.0390625,-0.0430298,0.0271606,0.0088501
156,0,0.0170898,0.0408936,-0.0323486,0.0112915,-0.0216675,-3.16956,0.0292969,0.0186157,0.0384521,0.0253296,-0.027771,0.0161743,0.0213623
156,1,0.0268555,0.0241089,0.0250244,0.0161743,-0.0592041,-1.49902,0.0219727,0.000305176,0.0204468,0.0125122,-0.0350952,0.0402832,0.0436401
156,2,0.0265503,0.0588989,0.0274658,0.0161743,0.0119019,-1.06842,0.0228882,-0.00457764,-0.03479,0.0314331,-0.0274658,0.0219727,0.010376
156,3,0.0390625,0.0479126,0.0283813,0.0332642,-0.0112915,1.76422,0.0189209,0.0210571,0.00396729,0.0308228,-0.0292969,0.0231934,0.0442505
156,4,0.0320435,0.0457764,0.0231934,-0.00152588,-0.0396729,2.66968,0.0357056,0.00244141,-0.00610352,0.03479,-0.0274658,0.0323486,0.0360107
157,0,0.0372314,0.0405884,0.0375366,0.0689697,0.0241089,1.78589,-0.0167847,0.00152588,0.00305176,0.0161743,-0.0323486,0.0213623,0.0521851
157,1,0.0369263,0.0198364,0.0439453,0.0296021,0.00793457,0.38208,-0.0265503,0.00854492,-0.00152588,0.0201416,-0.0222778,0.0201416,0.0387573
157,2,0.043335,0.039978,0.0280762,0.0344849,-0.00549316,-0.111389,0.0213623,0.0256348,-0.00183105,0.0216675,-0.0308228,0.0109863,0.00701904
157,3,0.0350952,0.0308228,0.0305176,0.0189209,-0.0125122,0.469055,0.0180054,0.0311279,0.0137329,0.0186157,-0.0335693,0.0186157,0.0131226
157,4,0.0296021,0.0152588,0.0476074,0.0265503,-0.0296021,-2.09808,0.017395,0.00488281,0.0140381,0.0292969,-0.0241089,0.0180054,-0.00549316
158,0,0.0738525,0.00366211,0.027771,0.0360107,-0.0204468,0.704346,0.0100708,0.0292969,0.0189209,0.0192261,-0.0247192,-0.00213623,0.020752
158,1,0.0540161,0.00244141,0.0177002,0.0311279,-0.0222778,2.24274,0.0363159,0.0189209,0.0167847,-0.0149536,-0.0375366,0.0338745,-0.0473022
158,2,0.045166,0.0131226,0.10498,0.0256348,-0.0247192,2.55676,0.0250244,0.00793457,0.0875854,0.0289917,-0.0302124,0.0952148,0.0473022
158,3,0.0274658,0.0012207,0.0390625,0.0216675,-0.0302124,1.77124,0.0296021,0.0140381,0.0354004,0.00946045,-0.022583,-0.0170898,0.0344849
158,4,0.0338745,-0.0482178,0.0280762,0.0186157,-0.0228882,2.33063,0.0250244,0.00213623,0.010376,0.0247192,-0.0302124,0.0534058,0.0164795
159,0,0.0323486,0.00396729,0.0265503,0.00854492,-0.0238037,2.09015,0.0448608,0.0164795,0.00915527,0.00457764,-0.0241089,0.071106,0.03479
159,1,0.0442505,0.00305176,0.0228882,0.0177002,0.00549316,1.93817,0.0283813,0.0158691,0.020752,0.0286865,-0.010376,0.0357056,-0.0228882
159,2,0.0326538,0.012207,0.0341797,0.010376,-0.039978,1.6925,0.022583,-0.00732422,0.00427246,0.0213623,-0.0125122,0.0146484,-0.0262451
159,3,0.0335693,-0.00915527,0.0354004,0.0274658,0.0164795,1.10809,-0.000610352,0.00915527,0.017395,0.0100708,-0.017395,0.0222778,0.0552368
159,4,-0.00610352,0.0088501,0.0552368,0.0506592,0.0265503,1.15875,0.0238037,0.0167847,0.00854492,0.0210571,-0.0253296,0.0469971,-0.0177002
160,0,-0.0119019,0.0582886,0.0360107,0.0805664,0.0372314,1.01318,-0.0384521,-0.0158691,0.0115967,0.0491333,-0.0140381,0.0210571,-0.0750732
160,1,0.0250244,0.0375366,0.0228882,0.00976562,0.0469971,0.779114,0.0296021,0.00610352,0.0170898,0.00640869,-0.027771,0.0134277,0.00305176
160,2,0.0326538,0.0311279,0.0317383,0.0289917,0.0518799,0.610046,0.0268555,0.0161743,0.0527954,0.0216675,0.00335693,0.0201416,0.00396729
160,3,0.0198364,0.00366211,0.0393677,0.0259399,0.100098,0.435181,0.017395,0.0198364,0.0186157,0.0134277,-0.0280762,-0.043335,0.000915527
160,4,0.00335693,-0.0115967,0.0253296,0.0527954,0.0540161,0.272827,0.0708008,0.00427246,0.0253296,-0.0216675,-0.0198364,0.0354004,-0.00915527
161,0,0.0265503,0.0164795,0.0750732,0.017395,0.0314331,0.215454,0.0265503,0.0137329,0.0485229,0.00335693,-0.0238037,-0.0350952,0.0134277
161,1,0.0253296,0.0387573,0.0265503,0.0088501,0.139465,0.118713,0.0167847,0.0253296,0.022583,0.0228882,-0.0341797,0.0265503,-0.0146484
161,2,0.0323486,0.0576782,0.0161743,0.00915527,0.165405,-0.116272,-0.000305176,0.00823975,0.0146484,0.0662231,-0.0149536,0.022583,0.0350952
161,3,0.0192261,0.062561,0.0335693,0.00518799,0.103149,-0.0701904,0.0216675,0.00366211,0.0177002,-0.0332642,-0.0247192,0.050354,-0.0204468
161,4,0.0396729,0.0567627,0.0314331,0.0280762,0.00946045,-0.0393677,0.0338745,0.0308228,0.0228882,0.0152588,-0.0506592,0.0442505,0.0384521
162,0,0.0314331,0.0610352,0.012207,0.00976562,-0.0292969,-0.116577,0.027771,0.0152588,0.0167847,0.0234985,-0.027771,0.0653076,0.0210571
162,1,0.0457764,0.0692749,0.0421143,0.0195312,-0.0250244,-0.438538,0.0158691,0.00427246,0.0323486,0.012207,-0.0177002,0.00946045,0.0250244
162,2,0.0534058,0.0616455,0.0927734,0.00671387,-0.0222778,-0.529175,0.00335693,0.0161743,0.0112915,0.017395,-0.0369263,0.0161743,0.0393677
162,3,0.0378418,0.0405884,0.0576782,0.0213623,-0.000610352,-0.654602,0.0161743,0.0354004,0.0222778,-0.00549316,-0.0234985,0.0158691,0.0143433
162,4,0.0164795,0.0692749,0.0250244,0.015564,0.0567627,-0.453796,0.0228882,0.0567627,-0.0143433,0.0106812,-0.00854492,0.0372314,0.0289917
163,0,0.0378418,0.0576782,0.0427246,0.0137329,0.00244141,-0.386963,0.0289917,-0.0363159,0.0234985,0.00305176,0.00427246,0.0268555,0.0408936
163,1,0.0204468,0.0219727,0.0274658,0.0195312,-0.0357056,-0.694885,0.0201416,-0.0198364,0.010376,0.00976562,-0.0186157,0.0283813,0.0253296
163,2,0.022583,0.0161743,0.0271606,0.0140381,0.0119019,-0.757751,0.0271606,0.0418091,0.000610352,0.0231934,-0.0274658,-0.0134277,0.0354004
163,3,0.0222778,0.0238037,0.0317383,0.0259399,0.050354,-0.9198,0.0149536,0.0213623,0.00915527,0.00457764,-0.0283813,0.0195312,0.0457764
163,4,0.0149536,0.0106812,0.0265503,0.00457764,0.0323486,-1.00891,0.0341797,0.0231934,0.0262451,0.0115967,-0.0228882,0.0183105,0.0338745
164,0,0.0436401,0.00213623,0.0152588,0.0128174,0.0418091,-0.965271,0.0341797,0.027771,0.0253296,0.00396729,-0.00793457,0.0311279,0.022583
164,1,0.0115967,0.0125122,-0.0274658,0.0125122,0.0109863,-0.888062,0.0204468,0.0183105,0.00793457,0.0140381,-0.00396729,0.0244141,0.0216675
164,2,0.015564,-0.012207,0.0201416,0.0106812,0.000610352,-0.943909,0.0256348,0.0201416,0.0216675,0.000305176,-0.0109863,0.0189209,0.022583
164,3,-0.0222778,0.0115967,0.0186157,0.0640869,0.0106812,-0.918579,0.0158691,0.0201416,0.00701904,0.0216675,-0.0274658,0.0234985,0.0357056
164,4,0.0292969,-0.0418091,0.0204468,0.0100708,0.0488281,-0.967712,0.0213623,0.0158691,0.0170898,0.0109863,-0.0161743,0.015564,0.0454712
165,0,0.0131226,0.00640869,0.0231934,0.0112915,0.0119019,-0.962219,0.0228882,0.0158691,0.0140381,0.00732422,-0.0115967,0.0350952,0.012207
165,1,0.0183105,0.0695801,0.0271606,0.0299072,0.0350952,-0.982361,0.0253296,0,0.00732422,0.0125122,-0.0238037,0.0250244,0.0299072
165,2,0.0177002,0.0393677,-0.0177002,0.0109863,0.0167847,-0.849915,0.0134277,0.0219727,0.0149536,0.00518799,-0.0378418,0.0201416,0.0372314
165,3,0.0219727,0.0247192,-0.0256348,0.00762939,0.00366211,-0.805054,0.0143433,0.0241089,0.00396729,0.0106812,-0.0286865,0.0323486,0.0360107
165,4,-0.000305176,0.0335693,0.0891113,0.0439453,0.0244141,-0.791321,0.0201416,0.0201416,0.0411987,-0.0140381,-0.0219727,0.0222778,0.0384521
166,0,0.0128174,0.0247192,-0.00366211,0.00610352,0.0643921,-0.984192,0.0256348,0.0216675,-0.0524902,0.00854492,-0.032959,-0.0158691,0.0299072
166,1,0.022583,0.0427246,0.0299072,0.0131226,0.0366211,-0.737,0.0204468,-0.0588989,-0.00396729,0.0125122,-0.0411987,0.0250244,0.0366211
166,2,0.0241089,0.0521851,0.0296021,0.00518799,0.039978,-0.706482,-0.0292969,0.0195312,0.00152588,0.0161743,-0.038147,0.0134277,0.043335
166,3,0.0158691,0.0582886,0.0280762,0.0137329,0.0253296,-0.68512,0.022583,0.0198364,-0.00610352,0.0183105,-0.0436401,0.0390625,0.032959
166,4,-0.00946045,0.0311279,0.0250244,-0.00549316,0.00549316,-0.750427,0.0463867,0.032959,0.0180054,0.0442505,-0.039978,0.027771,0.0640869
167,0,-0.039978,0.0357056,0.0143433,0.0112915,0.0457764,-0.770874,0.0244141,0.0286865,-0.000610352,0.0100708,-0.0622559,0.0234985,0.0360107
167,1,0.0274658,0.03479,0.0610352,0.0161743,0.0219727,-0.932007,0.0332642,0.0311279,0.00762939,0.0192261,-0.0335693,0.00671387,0.0268555
167,2,0.0210571,0.043335,0.0228882,0.00946045,0.00640869,-0.880432,0.0317383,0.0158691,0.0115967,0.0119019,0.00732422,0.00823975,0.03479
167,3,0.0189209,0.0918579,0.0332642,0.0234985,0.072937,-0.905457,0.0247192,0.0408936,0.0177002,0.00183105,-0.0228882,0.0161743,0.0259399
167,4,0.0231934,0.0134277,0.0152588,0.0268555,0.032959,-0.88623,0.0115967,0.0201416,0.0332642,-0.038147,-0.0192261,0.0152588,0.038147
168,0,0.0186157,0.0280762,0.022583,0.0201416,0.00671387,-0.887146,0.0366211,0.012207,-0.0109863,0.0164795,-0.00640869,0.0372314,0.0180054
168,1,0.027771,0.0296021,-0.0152588,0.017395,0.0439453,-0.852966,0.0500488,0.00610352,0.0143433,0.00305176,-0.0210571,0.0167847,0.0210571
168,2,0.0149536,0.0366211,0.0357056,0.0311279,0.0262451,-0.855408,0.0335693,0.0143433,0.00610352,0.012207,-0.00762939,0.0350952,0.0262451
168,3,0.043335,0.0198364,0.0271606,-0.00610352,0.0427246,-0.815735,0.0976562,0.0286865,0.022583,-0.0592041,0.0167847,0.0177002,0.0692749
168,4,0.00762939,0.0146484,0.0314331,0.0466919,0.0271606,-0.792236,0.0100708,0.0167847,0.0259399,0.043335,0.00305176,0.0152588,0.0219727
169,0,0.0216675,0.0210571,0.0305176,0.039978,0.0421143,-0.753174,0.0335693,0.0595093,0.0183105,0.0140381,-0.00457764,-0.00762939,0.0283813
169,1,-0.000915527,0.000305176,0.000915527,0.03479,0.0305176,-0.727539,0.0402832,0.0128174,0.0439453,0.0134277,0.00244141,0.0250244,0.0234985
169,2,0.032959,0.00488281,0.0643921,0.0384521,0.0311279,-0.703125,0.0146484,0.0183105,0.020752,-0.00549316,-0.0238037,0.0125122,0.0369263
169,3,0.0292969,-0.00854492,0.0137329,0.0234985,0.0363159,-0.66925,0.0332642,0.0238037,0.0369263,0.00823975,-0.00457764,0.0704956,0.0320435
169,4,0.00640869,-0.00396729,0.0131226,0.0415039,0.0354004,-0.609741,0.0357056,0.0268555,-0.0241089,0.0195312,-0.00640869,0.0305176,0.0231934
170,0,0.0128174,0.000915527,0.00732422,0.0283813,0.0344849,-0.640564,0.0299072,0.0213623,0.00701904,0.00152588,-0.0177002,0.0088501,0.038147
170,1,0.0164795,0.0170898,0.015564,0.0241089,0.0460815,-0.623779,0.020752,-0.000915527,0.0335693,0.0109863,-0.0222778,0.00793457,0.0219727
170,2,0.00762939,0.00488281,0.0238037,0.0338745,0.038147,-0.600281,0.0354004,0.00457764,0.0167847,0.015564,0.0384521,0.0100708,0.0332642
170,3,0.0250244,0.0201416,0.0265503,0.0167847,0.0540161,-0.54657,-0.000915527,0.0213623,0.0180054,-0.00213623,-0.00793457,0.0170898,0.0317383
170,4,0.0286865,0.0152588,0.027771,0.0320435,0.0473022,-0.505066,0.0204468,0.0619507,0.0286865,0.0125122,-0.00762939,0.0195312,0.0125122
171,0,0.00854492,0.00915527,0.0125122,0.0369263,0.022583,-0.49408,0.0259399,0.0332642,-0.0338745,0.0125122,0.00915527,0.0473022,0.0198364
171,1,0.0253296,-0.0167847,0.0418091,0.0372314,0.03479,-0.447388,0.0213623,0.0134277,0.00488281,0.0680542,-0.0128174,0.0289917,0.0808716
171,2,-0.00244141,0.00946045,0.022583,0.0415039,0.0518799,-0.453186,0.0326538,0.0198364,0.00579834,0.0271606,0.000610352,0.00640869,0.0201416
171,3,0.0286865,0.00274658,0.0234985,0.111389,0.0323486,-0.442505,0.0527954,0.00854492,0.00427246,0.0210571,-0.0164795,0.0112915,0.0170898
171,4,-0.00244141,0.0299072,0.0299072,0.0900269,0.0256348,-0.423889,-0.00396729,0.017395,-0.00793457,-0.00640869,-0.0482178,0.0244141,-0.0302124
172,0,0.0125122,0.0384521,0.0534058,0.0524902,0.0228882,-0.433044,0.0198364,0.0204468,0.0100708,0.0387573,-0.0012207,0.0112915,0.0299072
172,1,0.0125122,0.0421143,0.0125122,0.0579834,-0.0100708,-0.436401,0.00244141,0.0259399,0.0137329,0.0280762,-0.010376,0.0167847,0.0195312
172,2,0.00732422,0.00152588,0.00579834,0.0500488,0.0311279,-0.813293,0.0323486,0.0335693,-0.0204468,0.0195312,-0.00732422,0.0143433,0.0326538
172,3,0.0198364,0.0445557,0.0158691,0.0384521,0.0350952,-0.359192,0.0183105,0.0460815,0.00915527,0.0280762,0.0106812,0.0119019,0.0112915
172,4,0.022583,0.0656128,-0.0219727,0.0195312,0.0323486,-0.33905,0.0305176,0.0259399,0.0262451,0.032959,0.0192261,0.00305176,0.0161743
173,0,0.0204468,0.0613403,0.0265503,0.0424194,0.0299072,-0.299988,0.027771,0.038147,0.027771,0.0372314,0.00366211,0.00640869,-0.0219727
173,1,0.0695801,0.0418091,0.0192261,0.0448608,0.0363159,-0.312805,0.00976562,0.0100708,0.0326538,0.0308228,0.0012207,0.00854492,0.0158691
173,2,0.0274658,-0.00335693,0.0204468,0.0527954,0.0897217,-0.297852,0.0311279,0.0732422,0.0292969,0.0250244,-0.0100708,0.00671387,0.000610352
173,3,0.0216675,0.0177002,0.00732422,0.0601196,0.0338745,-0.278931,0.0292969,0.0326538,0.0177002,0.0140381,-0.00854492,0.00549316,0.0234985
173,4,-0.0115967,0.0088501,0.00762939,0.0500488,-0.00213623,-0.279846,0.0274658,0.0256348,0.0170898,0.0363159,-0.0128174,0.0140381,0.0128174
174,0,0.0228882,0.0219727,0.010376,0.0354004,0.0247192,-0.278931,0.0430298,0.0268555,-0.0170898,0.0125122,-0.022583,-0.00488281,0.0265503
174,1,0.0189209,0.00823975,0.0149536,0.0262451,0.027771,-0.239868,0.0302124,0.0265503,0.0283813,0.0222778,-0.0378418,0.0112915,0.0268555
174,2,-0.0588989,0.0131226,0.0170898,0.0100708,0.0372314,-0.252991,0.0228882,0.0253296,0.0238037,0.0601196,-0.0427246,0.0137329,0.0259399
174,3,0.0283813,0.00946045,0.0314331,0.00915527,0.0332642,-0.248413,0.039978,0.0106812,0.0216675,0.0231934,-0.00793457,0.0222778,0.0442505
174,4,0.00976562,0.000915527,0.0149536,0.0518799,0.0250244,-0.238953,0.0350952,0.0408936,0.0219727,-0.0274658,-0.0247192,0.0195312,-0.0344849
175,0,0.0445557,-0.00152588,0.0115967,0.050354,0.0244141,-0.237427,0.0323486,0.0436401,0.0244141,0.0216675,-0.0286865,0.0167847,0.0112915
175,1,0.0149536,-0.0186157,0.0128174,0.0448608,0.0311279,-0.203247,0.0363159,0.0454712,0.0317383,0.0204468,-0.022583,0.0186157,0.0238037
