Devices
1000
,,Myon - Voltage,,,,,,,,,,,,,
Frame,Sub Frame,GC-M,TA,SOL,VM,VL,RF,BF,ST,GLUT-M,Gracilis,EO,GC-L,Semimembranosus
,,V,V,V,V,V,V,V,V,V,V,V,V,V
1,0,0.0262451,0.00823975,0.020752,-0.0131226,0.00427246,0.00854492,0.0198364,0.020752,0.0357056,0.0112915,-0.017395,0.0268555,0.0204468
1,1,0.0320435,0.0164795,0.0134277,0.00366211,0.0149536,0.0714111,0.00976562,0.0344849,0.0210571,0.0366211,-0.0283813,0.0244141,0.0415039
1,2,0.0262451,0.0375366,-0.00915527,0.0140381,0.0161743,0.0265503,0.0115967,0.0460815,0.0283813,0.0228882,0.0115967,0.0183105,0.0570679
1,3,0.0210571,0.0326538,0.012207,0.0112915,0.0213623,0.015564,0.0210571,0.0366211,0.0344849,0.0262451,-0.027771,0.0131226,0.0427246
1,4,0.0308228,0.0262451,0.0125122,0.0222778,0.0216675,0.012207,0.0213623,0.0244141,0.0427246,0.0418091,-0.0274658,0.0192261,0.045166
2,0,0.0280762,0.0332642,0.0012207,0.0259399,0.0234985,0.0125122,0.0357056,0.0186157,0.0326538,-0.0463867,-0.0259399,0.0137329,0.0369263
2,1,0.0335693,0.0158691,0.0119019,0.0152588,0.0146484,0.038147,0.0332642,0.0308228,0.0201416,0.00946045,-0.0317383,0.0119019,0.0839233
2,2,-0.0161743,0.0219727,0.0134277,0.0363159,0.0262451,0.0231934,0.0424194,0.0326538,0.0393677,0.0622559,-0.0231934,0.0289917,0.015564
2,3,0.0302124,0.0186157,0.038147,0.0204468,0.0210571,-0.0418091,0.0256348,0.0180054,0.0360107,0.0280762,-0.0335693,0.0216675,0.00305176
2,4,0.0283813,0.0323486,0.00762939,0.0192261,0.0341797,0.0204468,0.0354004,0.00183105,0.0283813,0.020752,-0.0628662,0.0253296,-0.0268555
3,0,0.00701904,0.0198364,0.012207,0.022583,0.0228882,0.0241089,0.0326538,0.0283813,0.0384521,0.0350952,-0.0152588,0.0216675,0.00244141
3,1,0.0259399,0.0296021,0.0177002,0.017395,0.00976562,0.0311279,0.0192261,0.0448608,0.0262451,0.0369263,-0.0198364,0.017395,0.00183105
3,2,0.0253296,0.0296021,0.0610352,0.00823975,0.0152588,-0.0247192,0.0228882,0.017395,0.0588989,0.0283813,-0.0186157,0.0259399,0.00701904
3,3,0.0265503,0.0167847,0.0320435,0.00396729,0.020752,-0.00457764,0.03479,0.0228882,0.0265503,0.0317383,-0.0305176,0.00549316,0.0201416
3,4,0.0189209,0.00457764,0.000915527,0.0167847,0.00305176,0.0210571,0.0683594,0.0234985,0.0268555,0.017395,-0.0296021,0.0216675,0.0244141
4,0,0.0250244,0.010376,0.00762939,0.0210571,0.0112915,0.0192261,0.0314331,0.0115967,0.0253296,0.022583,-0.0311279,0.0247192,0.015564
4,1,0.0369263,0.0247192,0.0250244,0.0335693,0.00854492,0.00915527,0.03479,0.0262451,0.0253296,0.0256348,-0.0408936,0.0335693,0.00946045
4,2,0.0369263,0.020752,0.0244141,0.0201416,0.022583,0.0436401,0.0283813,0.0308228,0.027771,0.0350952,-0.0750732,0.0305176,0.0189209
4,3,0.0161743,0.0430298,0.0384521,0.0143433,-0.0137329,0.0305176,0.0375366,0.0405884,0.0256348,0.0213623,-0.0384521,0.0131226,0.00762939
4,4,0.0341797,0.0369263,0.0189209,-0.00183105,0.0280762,0.0167847,0.0167847,0.0296021,0.0360107,0.0250244,-0.0250244,0.0216675,0.0195312
5,0,-0.0219727,0.0268555,0.00427246,-0.020752,0.0195312,0.0140381,-0.0128174,0.0189209,0.0238037,0.00457764,-0.055542,0.0204468,0.0274658
5,1,0.027771,0.0460815,0.032959,0.0286865,-0.00732422,0.0164795,0.0332642,0.0201416,0.0311279,0.0415039,-0.0268555,0.0167847,-0.0265503
5,2,0.0314331,0.0317383,0.0372314,0.0341797,0.020752,0.0192261,0.0143433,0.0186157,0.0283813,0.0302124,-0.0228882,0.0262451,0.00793457
5,3,0.0238037,0.0241089,0.00915527,0.015564,0.0161743,0.0280762,0.0799561,0.0265503,0.0167847,0.0619507,-0.0296021,0.00915527,0.0497437
5,4,0.0314331,0.0308228,0.0152588,0.022583,0.0210571,0.0119019,0.0231934,0.0354004,0.0311279,0.0317383,-0.0311279,0.0357056,0.0360107
6,0,0.0238037,0.0268555,0.0115967,0.0198364,0.0106812,0.00762939,0.020752,0.0195312,0.0189209,0.0534058,-0.0326538,0.0466919,0.00915527
6,1,0.0341797,0.0140381,-0.0363159,0.0152588,0.0201416,0.0125122,0.0210571,0.0177002,0.0326538,0.0292969,-0.0296021,0.0262451,0.00823975
6,2,-0.0012207,0.0219727,-0.00549316,0.0344849,0.0241089,0.0595093,0.0189209,0.0146484,0.0360107,0.0170898,-0.0408936,0.0366211,0.0396729
6,3,0.0375366,0.0228882,0.0131226,0.0119019,0.0231934,0.0125122,0.0149536,0.0204468,0.0360107,0.0354004,-0.0314331,0.03479,0.0314331
6,4,0.0228882,0.0231934,0.0140381,0.0219727,0.0421143,0.0204468,0.0088501,0.0100708,0.03479,0.0262451,-0.0497437,0.0250244,0.0177002
7,0,0.0210571,0.0128174,0.0271606,0.0524902,0.0109863,0.00213623,0.00671387,0.0292969,0.0204468,0.00274658,-0.0366211,0.0286865,0.0106812
7,1,0.0289917,0.0241089,0.0442505,0.0177002,0.012207,0.0012207,0.0299072,-0.0375366,0.0204468,0.0119019,-0.0408936,0.038147,0.0222778
7,2,0.0286865,0.0271606,0.0265503,0.00915527,0.00915527,0.00610352,0.0192261,0.0286865,0.0286865,-0.0250244,-0.0326538,0.0299072,0.0881958
7,3,0.0222778,0.0765991,0.038147,0.0186157,0.00762939,0.00366211,0.0164795,0.012207,0.0289917,0.0164795,-0.0463867,0.0363159,0.0442505
7,4,0.0296021,0.0280762,0.0125122,0.0268555,0.0167847,0.0088501,0.020752,0.0167847,0.0299072,0.00549316,-0.0341797,0.0656128,0.0601196
8,0,0.0183105,0.027771,-0.0231934,0.0134277,0.0250244,0.00640869,0.0183105,0.0106812,0.0296021,0.00518799,-0.0335693,0.0228882,-0.00457764
8,1,0.0201416,0.0390625,0.017395,0.0506592,0.0161743,0.00610352,-0.015564,0.0161743,0.0146484,-0.0344849,-0.032959,0.0296021,0.0390625
8,2,0.0296021,0.0454712,0.0262451,0.0140381,0.0228882,-0.0088501,0.015564,0.0109863,0.0213623,0.0146484,-0.0384521,0.0326538,0.0424194
8,3,0.03479,0.0418091,0.0268555,0.0384521,0.0234985,0.0183105,0.0469971,0.0128174,0.012207,-0.00671387,-0.0341797,0.0234985,0.039978
8,4,0.0488281,0.0219727,0.0140381,0.0158691,0.0198364,0.0134277,0.012207,0.0180054,0.0518799,0.00518799,-0.0311279,0.0357056,0.032959
9,0,0.0509644,0.0418091,0.0158691,0.0314331,0.00762939,0.0149536,0.0201416,0.0354004,0.012207,0.0726318,-0.0186157,0.0268555,0.0268555
9,1,0.0231934,0.0311279,-0.0219727,0.0137329,0.0115967,0.00213623,0.00671387,0.0152588,0.0363159,0.0296021,-0.039978,0.0692749,0.0567627
9,2,0.038147,0.0366211,0.038147,0.0216675,0.00640869,-0.0241089,0.0152588,0.0192261,-0.00305176,0.0152588,-0.0341797,0.0613403,0.0183105
9,3,0.0149536,0.0961304,0.0180054,0.0238037,0.0143433,0.0350952,0.0100708,0.0292969,0.0164795,0.0137329,-0.032959,0.00732422,0.0332642
9,4,0.0363159,0.0421143,-0.0143433,0.0149536,0.0183105,0.0561523,0.00366211,0.0222778,0.0164795,0.0219727,-0.0390625,0.0387573,0.0479126
10,0,0.0357056,0.0280762,0.012207,0.017395,0.00518799,0.0177002,0.0512695,0.0430298,0.0186157,0.00366211,-0.0357056,0.0366211,-0.0140381
10,1,0.0204468,0.0109863,0.0323486,0.0088501,0.0442505,0.00335693,0.0442505,0.0531006,0.00305176,0.0473022,-0.0363159,0.038147,0.0357056
10,2,0.0280762,0.0149536,0.015564,0.0338745,0.0112915,-0.0448608,0.00946045,0.0259399,-0.00366211,0.0366211,-0.0311279,0.0369263,0.0283813
10,3,0.0357056,0.038147,0.0180054,0.0338745,0.0296021,0.0177002,0.0115967,0.0112915,0.0164795,0.0393677,-0.0338745,0.0372314,0.0234985
10,4,0.0375366,0.0167847,0.0183105,0.0323486,0.00549316,0.0115967,0.00640869,0.0238037,0.00854492,0.0375366,-0.0375366,0.0256348,0.0476074
11,0,0.0183105,0.0228882,0.00640869,0.0201416,0.000610352,-0.00335693,0.00854492,0.0137329,0.0363159,0.0146484,-0.0314331,0.0222778,0.0515747
11,1,0.0189209,0.0143433,0.0189209,0.0228882,0.00946045,0.0134277,-0.0302124,0.0454712,0.0186157,-0.00976562,-0.0476074,0.0201416,0.0494385
11,2,-0.0088501,0.0320435,0.0140381,0.050354,0.0234985,0.0289917,0.0238037,0.0262451,0.0161743,0.0109863,-0.0344849,0.0408936,0.0305176
11,3,0.0305176,0.0283813,-0.0143433,0.010376,0.0192261,0.067749,0.012207,0.0216675,0.0924683,0.0543213,-0.0469971,0.0088501,0.0747681
11,4,0.0234985,0.0201416,0.0259399,0.0128174,0.0354004,0.0137329,0.00701904,0.0265503,0.015564,0.0436401,-0.0378418,0.0430298,0.0564575
12,0,0.0231934,0.0180054,0.0366211,0.0222778,0.015564,0.0146484,0.0140381,-0.0222778,0.0137329,0.0454712,-0.0286865,0.0366211,0.0537109
12,1,0.0286865,0.0332642,0.0341797,0.0320435,0.0350952,-0.00640869,0.0241089,0.0247192,0.0512695,0.039978,-0.027771,0.0299072,0.0473022
12,2,0.0424194,0.0265503,0.0509644,0.00457764,0.0204468,-0.0183105,0.0177002,0.0177002,0.0311279,0.0570679,-0.0302124,0.032959,0.0500488
12,3,0.0357056,0.0109863,0.017395,0.0192261,0.0332642,0.0286865,0.0131226,0.0198364,0.043335,0.057373,-0.0222778,0.0216675,0.0918579
12,4,0.0231934,0.0289917,0.0326538,0.0250244,0.00671387,0.0152588,0.0192261,-0.000915527,0.0274658,0.0683594,-0.0140381,0.0268555,0.0192261
13,0,0.0512695,0.0396729,0.0244141,-0.0177002,0.0137329,0.022583,-0.039978,0.0280762,0.0192261,0.0354004,-0.0271606,0.0228882,0.022583
13,1,0.0299072,0.0268555,0.000915527,0.027771,0.0143433,-0.0213623,0.0271606,0.0128174,0.0756836,0.0570679,-0.0152588,0.0662231,0.00762939
13,2,0.0286865,-0.00213623,0.0299072,0.010376,0.0308228,0.0143433,0.0128174,0.0280762,0.0283813,0.0592041,-0.0170898,0.0204468,0.100403
13,3,0.0317383,-0.0253296,0.00305176,0.0140381,0.0317383,0.0189209,0.0128174,0.0186157,0.0292969,0.0350952,-0.0201416,0.0256348,0.0100708
13,4,0.0262451,0.0137329,0.0219727,0.0250244,0.000610352,0.0146484,0.0158691,0.0515747,0.00335693,0.067749,0.00732422,0.043335,0.0674438
14,0,0.0244141,0.0262451,0.0241089,0.0228882,0.0195312,0.0231934,0.0131226,0.0302124,0.0180054,0.0610352,-0.0259399,0.039978,0.0921631
14,1,0.032959,0.0238037,0.0149536,0.0274658,0.0265503,-0.0326538,0.0152588,0.00701904,-0.00732422,0.0869751,-0.039978,-0.00488281,0.067749
14,2,0.0622559,0.00518799,0.0335693,0.0283813,0.0320435,0.0183105,0.0311279,0.020752,0.0189209,0.0714111,-0.0012207,0.0350952,0.0750732
14,3,0.0393677,0.0192261,0.0360107,0.0311279,0.0134277,0.0177002,0.0192261,0.0259399,0.0323486,0.0552368,-0.0375366,0.057373,-0.0106812
14,4,0.0393677,0.032959,0.0375366,0.0198364,0.0112915,0.0262451,0.0161743,0.0460815,0.0180054,0.065918,-0.0213623,0.0262451,-0.0326538
15,0,0.027771,0.027771,0.0201416,0.0253296,-0.0128174,0.0280762,0.0088501,0.00762939,0.0164795,0.0479126,-0.0344849,0.0323486,-0.045166
15,1,0.0241089,0.0378418,0.0198364,0.0192261,0.0189209,0.0234985,-0.0378418,0.032959,0.0262451,-0.0323486,-0.0216675,0.0271606,0.246277
15,2,0.0247192,0.0274658,-0.0109863,0.0338745,0.0128174,0.0146484,0.0247192,0.0384521,0.0219727,0.0543213,-0.0375366,0.0512695,0.171814
15,3,0.0296021,0.0289917,0.0283813,0.0396729,0.0335693,0.012207,0.0125122,0.0219727,0.0253296,0.0253296,-0.0286865,0.0335693,-0.0360107
15,4,0.0390625,0.0894165,0.0320435,0.0183105,-0.0476074,0.0299072,0.0265503,0.0634766,0.0167847,0.0369263,-0.0424194,0.0219727,0.0878906
16,0,0.0311279,0.0360107,0.0283813,0.00823975,0.0253296,0.017395,0.0213623,0.0109863,0.0146484,0.0344849,-0.0363159,0.0378418,0.0976562
16,1,0.0848389,0.0296021,0.0344849,0.020752,0.0299072,0.0177002,0.0106812,-0.00396729,0.0164795,0.0366211,-0.0390625,0.0332642,0.185242
16,2,0.0357056,-0.0338745,0.0140381,0.0305176,0.055542,0.0152588,0.0265503,0.015564,0.0100708,0.0170898,-0.0332642,0.0402832,-0.0109863
16,3,0.0222778,0.0442505,0.0393677,0.0253296,0.0259399,0.0140381,0.0152588,0.000915527,0.0131226,0.0311279,-0.0369263,0.0424194,0.0482178
16,4,0.0393677,0.0250244,0.0360107,0.027771,0.0152588,0.00549316,0.00793457,0.0134277,0.012207,0.0396729,-0.0494385,0.0302124,0.420532
17,0,0.0286865,0.0308228,0.0360107,0.0222778,0.0210571,-0.0106812,0.0256348,0.0115967,0.0549316,0.0219727,-0.0308228,0.0134277,0.10498
17,1,0.0112915,0.0256348,0.0250244,0.0271606,0.0268555,0.0195312,0.0195312,0.0210571,0.0161743,-0.0161743,-0.0375366,0.0222778,0.111084
17,2,0.0274658,-0.0357056,0.0228882,0.00671387,-0.050354,0.0183105,0.0238037,0.0164795,0.00976562,0.0363159,-0.0216675,0.0247192,0.413208
17,3,-0.0311279,-0.000915527,0.0289917,0.0396729,0.0292969,0.0335693,0.0201416,-0.00183105,0.0112915,0.0494385,-0.00610352,0.00732422,0.634766
17,4,0.00976562,0.0170898,0.022583,0.022583,0.0262451,0.0183105,0.020752,-0.00579834,0.0231934,0.0228882,0.0231934,0.0289917,0.710754
18,0,0.0146484,0.0119019,0.0561523,0.0424194,0.0146484,0.000610352,0.027771,0.00488281,0.0216675,0.00457764,-0.0390625,0.032959,0.702209
18,1,0.0344849,0.0335693,0.0366211,0.00549316,0.03479,0.0195312,0.012207,-0.0289917,0.0210571,0.00976562,-0.0280762,0.0238037,0.138855
18,2,0.0424194,0.0601196,0.0445557,0.00946045,0.0527954,0.0344849,0.000915527,0.00366211,0.0283813,0.0119019,-0.0305176,0.027771,-0.440369
18,3,0.0213623,0.0167847,0.0402832,0.0177002,0.0299072,0.0244141,0.0280762,-0.00183105,0.000610352,-0.0332642,-0.0250244,0.0308228,-0.499878
18,4,0.0253296,0.00976562,0.0305176,0.0256348,-0.0344849,0.0271606,0.0265503,0.0335693,0.0210571,-0.00701904,-0.0396729,0.0222778,0.0787354
19,0,0.0222778,0.0146484,0.0344849,-0.0402832,0.0222778,0.0210571,-0.00701904,0.0180054,0.0238037,-0.015564,-0.0418091,0.0146484,-0.321655
19,1,0.0332642,0.0430298,0.0305176,0.0357056,0.0143433,0.0198364,0.0189209,0.0204468,0.0241089,-0.0143433,-0.0192261,0.0262451,-0.0897217
19,2,0.0167847,0.0317383,0.0900269,0.0305176,0.0149536,0.0726318,0.0140381,0.0146484,0.0405884,0.015564,-0.0109863,0.0280762,0.145874
19,3,0.0268555,0.0350952,0.0491333,0.0372314,0.0338745,-0.0204468,0.00701904,0.0125122,-0.0238037,-0.000305176,-0.0244141,0.0338745,0.344238
19,4,0.0341797,0.0408936,0.0289917,0.0332642,0.0448608,0.0674438,0.0234985,0.0238037,0.0234985,0.0180054,-0.0241089,0.0494385,0.534973
20,0,0.0860596,0.0521851,0.0338745,0.0161743,0.0256348,0.0222778,-0.0228882,0.00976562,0.0320435,0.0354004,-0.0436401,0.0305176,0.592346
20,1,0.0180054,0.038147,0.0424194,0.0354004,0.00823975,0.0515747,0.0115967,0.0100708,0.0210571,-0.00274658,-0.0366211,0.0415039,0.231628
20,2,0.0262451,0.0320435,0.0311279,0.0250244,0.00854492,0.0158691,0.0491333,-0.00640869,0.0198364,0.0180054,-0.0308228,0.0311279,0.479736
20,3,0.0244141,0.0445557,0.0338745,-0.0012207,0.0192261,0.0183105,0.0149536,-0.022583,0.0146484,0.00640869,0.00427246,0.017395,0.554504
20,4,0.0247192,0.039978,0.0524902,0.0244141,0.0115967,0.010376,0.0189209,0.00793457,0.0186157,0.00762939,-0.0784302,0.0247192,0.582886
21,0,0.0262451,0.0280762,0.0231934,0.015564,0.0308228,0.0280762,0.0186157,0.00946045,-0.0125122,0.00854492,-0.0540161,0.0979614,0.603027
21,1,0.0216675,0.0186157,0.0360107,0.0216675,0.0588989,0.0286865,0.0323486,0.0256348,0.0137329,0.00793457,-0.0265503,0.017395,0.552063
21,2,0.0161743,0.0192261,0.0360107,0.0411987,0.0228882,0.00183105,0.0088501,0.0180054,0.00762939,0.00457764,-0.0418091,0.0198364,0.4599
21,3,0.0302124,0.0350952,0.039978,0.0320435,0.0177002,0.0198364,0.0152588,0.0378418,0.00457764,-0.0115967,0.00183105,0.022583,0.367432
21,4,0.0222778,0.0299072,-0.0158691,0.0119019,0.0259399,-0.0106812,0.010376,-0.000915527,0.0485229,0.0280762,-0.0418091,0.050354,0.301514
22,0,0.0186157,0.0350952,0.0378418,0.00488281,0.0302124,0.0189209,-0.0344849,-0.000915527,0.0167847,-0.032959,-0.0445557,0.0305176,0.308533
22,1,0.0326538,0.0256348,0.03479,-0.00946045,0.0189209,0.0311279,0.00396729,0.020752,0.00946045,0.0128174,-0.0448608,0.0195312,0.256042
22,2,0.0268555,0.0140381,0.0195312,0.083313,0.0152588,0.0198364,0.0952148,0.00396729,0.0100708,0.0372314,-0.0442505,0.0241089,0.215454
22,3,-0.00915527,0.0259399,0.0427246,0.0125122,0.03479,0.0271606,-0.00976562,0.00366211,0.0109863,-0.055542,-0.0674438,0.0228882,0.115051
22,4,0.0241089,0.00793457,0.0378418,0.0350952,0.0335693,0.0747681,0.0369263,0.00274658,-0.0259399,0.000305176,-0.0234985,0.039978,0.104065
23,0,0.0234985,0.0228882,0.0253296,0.0210571,0.0323486,0.0204468,0.0332642,0.0604248,0.00518799,0.00427246,-0.010376,0.0198364,0.0527954
23,1,0.0247192,0.00762939,0.0326538,0.0299072,0.0247192,0.0357056,0.0601196,0.020752,0.0146484,0.0195312,-0.0244141,0.0259399,0.020752
23,2,0.03479,0.00213623,0.0323486,0.032959,0.0262451,0.0247192,0.0436401,0.0158691,-0.0134277,0.0204468,0.00396729,0.0375366,-0.00274658
23,3,0.0164795,0.0204468,0.0408936,0.0326538,0.0289917,0.0119019,0.0354004,0.0137329,0.00671387,0.00823975,-0.0167847,0.00915527,-0.038147
23,4,0.017395,0.0186157,0.0283813,0.0369263,0.032959,0.0378418,0.0170898,0.00366211,0.00183105,0.00244141,-0.0238037,0.0839233,-0.0543213
24,0,0.0262451,0.0415039,0.038147,0.0457764,0.0369263,0.0546265,0.0183105,-0.0158691,0.000915527,0.0140381,-0.0210571,0.039978,-0.0769043
24,1,0.017395,0.017395,0.00640869,0.0360107,0.0280762,0.0588989,0.0152588,-0.00549316,0.0457764,0.0137329,-0.020752,0.0622559,-0.0930786
24,2,0.0213623,0.0231934,0.0341797,0.0369263,0.0119019,0.0250244,0.0140381,-0.0567627,0.0128174,0.0308228,-0.0164795,0.017395,-0.127869
24,3,0.0213623,0.0115967,0.0531006,0.0466919,0.0360107,0.032959,0.0216675,-0.000610352,0.000915527,0.0216675,-0.015564,0.0137329,-0.119629
24,4,-0.00183105,0.00701904,0.0482178,0.0463867,0.0149536,0.0250244,0.0238037,0.0137329,0.0177002,0.00732422,-0.0234985,0.0234985,-0.195312
25,0,0.0299072,0.00518799,0.0326538,0.0234985,0.0271606,0.0354004,0.00854492,0.00640869,0.015564,0.00183105,-0.010376,0.0177002,-0.205078
25,1,0.0262451,-0.0265503,0.0296021,0.0271606,0.00213623,0.0204468,0.00244141,0.0817871,0.0219727,0.00823975,-0.00518799,0.0283813,-0.222778
25,2,0.0161743,0.027771,0.0296021,0.0323486,0.0558472,0.0411987,0.000610352,0.038147,0.0186157,0.0161743,0.0228882,0.0161743,-0.215454
25,3,0.0158691,0.0552368,0.0326538,0.0143433,0.0259399,0.0384521,0.0170898,0.0549316,0.0170898,-0.00213623,-0.00823975,0.0244141,-0.213013
25,4,0.0350952,0.039978,0.0418091,0.0448608,0.0366211,0.0326538,0.00793457,0.0549316,0.00274658,0.00915527,-0.0128174,0.0164795,-0.188293
26,0,0.0302124,0.0756836,0.0250244,0.0305176,0.0497437,0.0308228,0.0161743,0.0369263,0.00396729,0.00793457,-0.00213623,0.0192261,-0.202637
26,1,0.0292969,0.0250244,-0.00579834,0.0402832,0.0265503,0.0216675,-0.000610352,0.0177002,-0.000305176,0.00488281,-0.0100708,0.0146484,-0.185547
26,2,0.0195312,0.0268555,0.0012207,0.0341797,0.0247192,0.0408936,0.00366211,0.0283813,0.0180054,0.0765991,-0.0119019,0.0238037,-0.203857
26,3,0.00793457,0.00457764,0.0714111,0.017395,0.0280762,0.0292969,0.0149536,0.0354004,0.0131226,0.000610352,-0.0210571,0.0271606,-0.196838
26,4,0.0424194,0.0244141,-0.0289917,0.0152588,0.027771,-0.017395,0.0283813,0.0234985,-0.0527954,0.0149536,-0.0210571,0.010376,-0.18158
27,0,0.0161743,0.0350952,-0.00152588,0.0363159,0.0302124,0.0180054,0.0302124,0.00793457,0.0158691,0.00671387,-0.0164795,0.0170898,-0.179443
27,1,0.085144,0.0289917,0.0115967,0.0253296,0.0271606,0.0317383,0.0375366,0.0128174,0.00305176,0.0128174,-0.0204468,0.0302124,-0.17334
27,2,0.0164795,0.00854492,0.0125122,0.0299072,0.0314331,0.0216675,0.0253296,0.0305176,0.00640869,0.0183105,-0.00427246,0.0811768,-0.185852
27,3,0.0482178,0.0271606,0.0427246,0.0704956,0.0311279,0.0088501,0.0576782,0.0384521,-0.00488281,0.0253296,0.020752,0.0137329,-0.24353
27,4,0.0140381,0.045166,0.0265503,0.032959,0.0201416,0.0332642,0.0360107,0.0140381,0.012207,0.0119019,-0.0427246,0.00244141,-0.205078
28,0,0.0262451,0.0302124,0.0280762,0.0314331,-0.0128174,0.0283813,0.0302124,-0.0180054,0.0161743,0.0170898,-0.0268555,0.00762939,-0.198364
28,1,0.0228882,0.020752,0.0268555,0.0323486,0.032959,0.0296021,0.0134277,-0.0222778,0.017395,0.0372314,-0.0500488,0.0216675,-0.193481
28,2,0.0189209,0.0289917,0.0402832,0.0299072,0.0387573,0.0332642,0.0125122,-0.00427246,-0.00549316,0.0344849,-0.020752,0.0238037,-0.142822
28,3,0.0775146,0.0292969,0.0274658,0.0680542,0.0296021,0.0265503,0.00946045,0.0384521,0.0088501,0.0344849,-0.0216675,0.0234985,-0.130615
28,4,0.0183105,0.0253296,0.0302124,0.0390625,0.0323486,0.000915527,0.00732422,0.0265503,-0.0204468,0.0320435,-0.0140381,0.0167847,-0.133972
29,0,0.0140381,0.027771,0.0180054,0.0482178,0.03479,0.0259399,0.00518799,0.0350952,0.0314331,0.0466919,-0.00823975,0.0088501,-0.231628
29,1,0.0106812,0.0167847,0.00976562,0.0241089,0.0253296,0.0292969,0.0299072,0.0283813,0.022583,0.0292969,-0.0100708,0.00335693,-0.192871
29,2,-0.0213623,0.00946045,0.0384521,0.0985718,0.0473022,0.0289917,-0.0344849,0.0274658,0.00579834,0.0808716,-0.0164795,0.0186157,-0.227051
29,3,0.017395,-0.000305176,0.0274658,-0.010376,0.0317383,0.0231934,0.0341797,0.050354,0.0259399,0.0280762,-0.0170898,0.022583,-0.180054
29,4,0.00701904,0.00762939,0.0311279,0.045166,0.012207,0.0296021,0.039978,0.00732422,0.00793457,0.0204468,-0.0372314,0.0216675,-0.166016
30,0,0.0247192,0.010376,0.022583,0.0411987,0.0299072,0.0271606,0.0210571,0.0234985,0.017395,0.0357056,-0.0128174,0.00213623,-0.157776
30,1,0.0497437,0.00305176,0.0296021,0.0457764,0.0326538,0.0354004,0.0268555,0.00946045,0.0183105,0.022583,-0.0576782,0.0262451,-0.136719
30,2,0.0469971,0.00244141,0.027771,0.0317383,0.0332642,0.0323486,0.0234985,0.0198364,-0.0299072,0.0241089,-0.0253296,0.0558472,-0.143738
30,3,0.00732422,0.0161743,-0.00793457,0.0311279,0.0366211,0.00427246,0.0341797,0.0320435,0.0186157,0.0299072,-0.00793457,0.0088501,-0.139771
30,4,0.0158691,0.0256348,0.0378418,0.0299072,0.0262451,0.0479126,0.0219727,0.0445557,0.0192261,0.0198364,-0.00701904,0.0231934,-0.144043
31,0,0.0265503,0.0827026,0.0305176,0.0537109,0.102844,0.0469971,0.0292969,0.039978,0.00793457,0.0112915,-0.0140381,0.0302124,-0.127869
31,1,0.0149536,0.0296021,0.0299072,0.0265503,0.0195312,0.0234985,0.038147,0.022583,0.0222778,0.0250244,-0.0170898,0.010376,-0.119629
31,2,0.0250244,-0.00213623,0.03479,0.0473022,0.0378418,0.0411987,0.065918,0.0152588,0.00610352,0.0189209,-0.0177002,0.0170898,-0.112305
31,3,0.0183105,0.0134277,0.0088501,0.017395,-0.0137329,0.0274658,0.0479126,0.0424194,0.0253296,0.0164795,-0.0195312,0.00274658,-0.113525
31,4,0.00793457,0.012207,0.0128174,0.0134277,0.0372314,0.0778198,0.0314331,0.0262451,0.0265503,0.0131226,-0.0134277,-0.0186157,-0.0891113
32,0,0.010376,0.0228882,0.0186157,0.045166,0.0296021,0.0274658,0,0.0201416,0.0405884,-0.045166,-0.022583,0.00854492,-0.0906372
32,1,0.0445557,0.00335693,0.010376,0.0299072,0.0311279,0.0241089,0.0286865,0.010376,0.0164795,0.00762939,-0.0140381,0.012207,-0.0817871
32,2,0.0112915,0.0231934,0.0216675,-0.0323486,0.0350952,0.0244141,0.0161743,0.0250244,0.0268555,0.0259399,-0.0210571,0.0115967,-0.0683594
32,3,0.0271606,0.00488281,0.0119019,-0.0311279,0.0482178,0.00793457,0.0302124,0.0167847,0.0283813,0.0610352,0.00823975,0.0119019,-0.015564
32,4,0.0210571,0.0183105,0.0421143,0.0323486,0.0280762,0.0332642,0.0164795,0.0241089,0.0286865,0.0128174,-0.0170898,0,-0.0909424
33,0,0.00640869,0.0494385,0.0167847,0.0131226,0.0320435,0.0280762,0.0238037,0.0210571,0.0256348,0.0372314,-0.0192261,0.0646973,-0.0909424
33,1,0.0213623,0.0201416,0.0292969,0.0350952,0.0302124,0.098877,0.0265503,0.020752,-0.0326538,0.0216675,-0.00518799,0.00366211,-0.103455
33,2,0.0161743,-0.00579834,0.00549316,0.0289917,0.0180054,0.022583,0.0387573,0.0338745,0.027771,0.00640869,-0.0231934,0.0140381,-0.0970459
33,3,0.0274658,0.0186157,-0.0308228,0.0161743,0.0338745,0.0845337,0.0210571,0.0244141,0.0100708,0.00701904,-0.0143433,0.0201416,-0.0756836
33,4,0.0119019,0.0088501,0.0180054,0.0274658,0.0341797,0.0366211,0.0299072,0.0299072,0.0170898,0.00946045,-0.0192261,-0.000915527,-0.0921631
34,0,0.06073,0.0112915,0.0112915,0.0308228,0.0305176,0.0216675,0.0332642,0.00305176,0.0338745,0.0119019,-0.0186157,-0.000610352,-0.0643921
34,1,0.000305176,0.0280762,-0.000915527,0.027771,0.0357056,0.0180054,0.0506592,-0.0192261,0.0146484,0.00946045,-0.0112915,0.0158691,-0.0601196
34,2,0.0222778,0.0131226,0.00183105,0.012207,0.0289917,0.0201416,0.0210571,0.0247192,0.0378418,0.00701904,-0.017395,0.00671387,-0.0570679
34,3,0.00396729,0.00671387,0.0195312,0.0344849,0.0271606,0.0268555,0.0485229,0.0344849,0.0314331,0.0143433,-0.0253296,0.00549316,-0.0488281
34,4,0.0265503,0.00854492,0.0183105,0.0418091,0.0216675,0.0201416,0.0341797,0.0228882,0.0683594,0.0170898,-0.0234985,-0.00366211,-0.0415039
35,0,0.0146484,0.0216675,0.0128174,0.0167847,0.0286865,0.00946045,0.0299072,0.0219727,-0.0012207,0.00244141,-0.0241089,0.0302124,-0.0442505
35,1,0.0979614,0.0201416,0.0183105,0.0912476,0.0439453,0.0195312,0.0411987,0.0299072,0.0216675,-0.0247192,-0.0311279,0.0216675,0.0164795
35,2,0.0134277,0.00793457,0.00701904,0.00732422,0.022583,0.0369263,-0.0137329,0.0326538,0.0271606,0.0628662,-0.0192261,0.0338745,-0.0482178
35,3,-0.00518799,0.00976562,-0.00152588,0.039978,0.0299072,0.0384521,0.0170898,0.0320435,0.0396729,0.0698853,-0.0189209,0.00732422,-0.0289917
35,4,-0.0354004,0.0149536,0.00335693,0.0369263,0.0311279,0.0332642,0.0393677,0.00976562,0.0238037,0.00946045,-0.00183105,0.00946045,-0.0708008
36,0,-0.000915527,-0.0485229,0.00854492,0.0338745,0.0622559,0.0323486,0.0344849,0.0857544,0.0210571,0.0192261,-0.0250244,0.0311279,-0.0668335
36,1,0.00823975,0.00671387,-0.0506592,0.0332642,0.0241089,0.0167847,0.0418091,0.0253296,0.0271606,0.00549316,-0.000305176,-0.00213623,-0.0531006
36,2,0.0177002,0.0256348,0.012207,0.0524902,0.0146484,0.0308228,0.0280762,0.0198364,0.0311279,0.0210571,-0.00305176,0.0131226,-0.0469971
36,3,0.0180054,0.0320435,0.0131226,0.0177002,0.0338745,0.03479,0.0210571,0.0299072,0.0271606,0.0292969,-0.0143433,0.00579834,-0.078125
36,4,0.0106812,0.0250244,0.00976562,0.0186157,0.0317383,-0.015564,0.0186157,0.0268555,-0.0338745,0.00823975,-0.0158691,-0.0268555,-0.0378418
37,0,0.000305176,0.03479,0.0106812,0.0341797,0.0201416,0.0228882,0.0384521,0.00274658,0.0259399,-0.00427246,-0.00183105,0.00488281,-0.0128174
37,1,0.00854492,0.0250244,-0.00366211,0.0137329,0.0769043,0.0292969,0.0189209,0.0488281,0.0268555,0.0378418,-0.0360107,0.00305176,-0.0222778
37,2,0.0088501,0.0198364,0.0167847,0.0186157,0.0222778,0.045166,0.0167847,0.0244141,-0.00701904,0.0238037,-0.0256348,0.0302124,-0.0231934
37,3,0.022583,0.0158691,0.00762939,0.0418091,0.0134277,0.0296021,0.0146484,0.0195312,0.0259399,0.0283813,-0.00488281,0.0112915,-0.00549316
37,4,0.0186157,0.0259399,0.0125122,0.0195312,0.0311279,0.0289917,0.0125122,0.0302124,0.0460815,0.0216675,-0.0115967,0.0177002,0.0201416
38,0,0.0204468,0.00366211,-0.00793457,0.0286865,0.0271606,0.0363159,0.0363159,0.0323486,0.0396729,0.0317383,-0.015564,0.000915527,-0.0405884
38,1,0.0125122,0.0259399,0.00762939,0.00579834,0.0314331,0.0308228,0.0234985,0.0125122,0.022583,0.0262451,-0.022583,0.0140381,-0.0320435
38,2,0.0601196,0.00549316,0.0115967,0.00518799,0.0274658,0.0216675,0.0192261,0.022583,0.0216675,0.0137329,-0.0140381,0.0100708,0.00274658
38,3,0.0180054,0.0222778,0.00854492,0.012207,0.0274658,0.0213623,0.0439453,0.0460815,0.0115967,0.0250244,-0.0268555,-0.0137329,-0.0247192
38,4,0.0149536,0.0109863,0.000915527,0.0177002,0.0323486,0.0296021,0.0369263,0.0579834,0.0326538,0.0265503,-0.0354004,0.0161743,-0.0427246
39,0,0.00549316,0.0442505,0.00762939,0.0195312,0.0628662,0.0198364,0.0396729,0.0326538,0.0216675,0.00579834,-0.00671387,0.0262451,-0.0494385
39,1,0.0247192,0.0210571,0.0125122,0.0161743,0.03479,0.0299072,0.0592041,0.0387573,0.0128174,-0.0390625,-0.0146484,-0.00976562,-0.0109863
39,2,0.00854492,0.0268555,0.055542,0.0415039,0.0213623,-0.0250244,0.0384521,0.0305176,-0.00823975,0.020752,-0.0195312,-0.0344849,-0.0177002
39,3,0.0167847,0.0268555,0.0137329,0.0137329,0.0244141,0.0164795,0.0497437,0.0292969,0.0286865,-0.00152588,-0.0149536,0.00610352,-0.0335693
39,4,0.00793457,-0.0115967,-0.0473022,0.0146484,0.00488281,0.0134277,0.0405884,0.0268555,0.0244141,0.0262451,-0.0152588,0.0280762,-0.0698853
40,0,0.0100708,0.0170898,-0.00671387,0.0112915,0.0302124,0.0283813,0.0408936,0.0323486,0.0323486,0.0177002,-0.0189209,0.017395,-0.00396729
40,1,0.0582886,0.0134277,-0.0228882,0.0726318,0.0247192,0.0302124,0.112305,0.022583,0.0253296,0.0595093,-0.0231934,0.0119019,0.020752
40,2,0.0228882,0.0350952,0.00152588,0,0.039978,0.0305176,0.0354004,0.00701904,0.0231934,0.0250244,-0.00701904,0.0219727,-0.00427246
40,3,0.0195312,0.0164795,0.00274658,0.0354004,0.0280762,0.0213623,0.00488281,0.0262451,0.043335,0.067749,-0.0241089,0.015564,-0.00396729
40,4,0.0201416,0.0170898,0.0296021,0.0146484,0.0357056,-0.0259399,0.0390625,0.0161743,0.0628662,0.00854492,-0.0167847,0.0692749,0.00732422
41,0,0.0152588,-0.012207,0.0140381,0.0152588,-0.0250244,0.0238037,0.0186157,-0.0387573,0.0201416,0.0198364,-0.0170898,0.0204468,0.00183105
41,1,0.0152588,0.0115967,0.012207,-0.00396729,0.038147,0.0088501,0.0238037,0.0720215,0.0323486,0.0448608,-0.0204468,0.0161743,0.0134277
41,2,0.0192261,0.0354004,0.010376,0.00457764,0.0180054,0.0408936,0.0244141,0.0143433,0.00701904,0.0186157,-0.0335693,0.0338745,0.00183105
41,3,0.0158691,0.00854492,0.00305176,-0.00213623,0.012207,0.0210571,0.0189209,0.0683594,0.0308228,0.0198364,-0.0430298,0.0143433,0
41,4,0.015564,0.012207,0.0299072,0.015564,0.0189209,0.00671387,0.0146484,0.0335693,-0.0222778,0.0100708,-0.0259399,0.0314331,0.010376
42,0,0.0149536,0.0170898,0.00305176,0.0189209,0.0335693,0.0485229,0.0259399,0.0473022,0.0384521,0.0259399,-0.0180054,-0.00152588,-0.0119019
42,1,0.0262451,0.0213623,0.015564,0.0140381,0.0299072,0.0247192,0.0250244,0.0561523,0.0161743,0.012207,-0.022583,-0.00305176,0.00244141
42,2,0.012207,0.00610352,0.00640869,0.00305176,0.0158691,0.0292969,0.0283813,0.0418091,0.0384521,0.0228882,-0.0201416,0.0283813,-0.0228882
42,3,0.0195312,0.0259399,0.0546265,0.0140381,0.0244141,0.0125122,0.043335,0.0402832,0.0415039,0.0222778,-0.0262451,0.0491333,0.0131226
42,4,0.0134277,0.0231934,0.0195312,0.00549316,0.0119019,0.0241089,0.0427246,0.0653076,0.0271606,0.0326538,-0.03479,0.0131226,0.00518799
43,0,0.0323486,0.0210571,-0.00793457,0.0698853,0.017395,0.0283813,-0.0170898,0.0515747,0.022583,0.0115967,-0.0317383,0.0100708,0.0128174
43,1,0.015564,0.0134277,0.00701904,0.0125122,0.0265503,0.0119019,0.0289917,0.0112915,0.0213623,0.020752,-0.0592041,0.0311279,0.0149536
43,2,-0.0192261,0.0125122,0.0106812,0.00946045,0.0210571,0.0289917,0.0158691,0.0692749,0.0292969,0.03479,-0.0259399,0.0219727,0.0292969
43,3,0.0234985,-0.0314331,0.0396729,0.00488281,-0.010376,0.00274658,0.012207,0.0613403,0.0439453,0.0488281,-0.0350952,0.0286865,0.00946045
43,4,0.0119019,-0.00946045,0.00701904,0.0134277,0.0259399,-0.012207,0.0119019,0.0250244,-0.0421143,0.0323486,-0.0350952,0.0140381,0
44,0,0.010376,0.0228882,0.022583,0.0158691,0.0210571,-0.0204468,0.00946045,0.0292969,-0.00305176,0.0427246,-0.0210571,0.0271606,-0.0195312
44,1,0.0140381,0.00427246,0.010376,0.0125122,0.0210571,0.107727,0.0167847,0.0238037,0.0860596,0.0418091,-0.0180054,0.0561523,-0.0149536
44,2,0.0302124,0.0256348,-0.0228882,0.00152588,0.0109863,0,0.0326538,0.0140381,-0.00305176,0.0390625,-0.0308228,-0.0448608,0
44,3,0.0253296,0.0259399,0.0152588,-0.0100708,0.0183105,0.0326538,0.0418091,0.0872803,0.0305176,0.0314331,-0.0259399,0.015564,-0.0140381
44,4,0.022583,0.0164795,0.0115967,0.00183105,0.012207,0.0253296,0.0228882,0.0323486,0.0335693,0.0787354,-0.027771,0.0164795,-0.0012207
45,0,0.0268555,-0.0436401,0.0128174,-0.00183105,0.0231934,0.0274658,0.0323486,0.0476074,0.0274658,0.03479,-0.0442505,0.0302124,0.0137329
45,1,0.0622559,0.0247192,0.0186157,0.0271606,0.0244141,0.0308228,0.0128174,0.0332642,0.0259399,0.0210571,-0.0012207,0.0292969,0.0549316
45,2,-0.0308228,0.015564,0.0186157,-0.0460815,0.0106812,-0.015564,0.0180054,0.0231934,0.0088501,0.0335693,-0.0421143,0.0262451,0.0140381
45,3,0.0375366,0.0366211,0.00274658,0.0198364,-0.020752,0.0143433,0.0219727,0.0112915,0.017395,0.0244141,-0.0366211,0.0280762,0.0357056
45,4,-0.0418091,0.0170898,0.017395,-0.0262451,0.0256348,0.0189209,0.010376,0.015564,0.0311279,0.00854492,-0.0387573,0.0183105,0.0540161
46,0,0.0195312,0.067749,0.0210571,-0.00366211,-0.0302124,0.0350952,0.0177002,-0.0146484,0.00732422,0.0292969,-0.0354004,0.0125122,0.0512695
46,1,0.038147,0.00732422,0.0146484,0.0137329,0.0204468,0.0259399,-0.00305176,0.00823975,0.0408936,-0.0393677,-0.0482178,0.032959,0.000915527
46,2,0.0317383,0.0253296,0.0158691,-0.000610352,0.0585938,0.0219727,0.0430298,0.0323486,0.0280762,0.00793457,-0.0357056,0.0259399,0.0299072
46,3,0.0326538,0.0131226,-0.0119019,0.0186157,0.0219727,0.0891113,0.00793457,0.020752,0.0247192,0.0332642,-0.0164795,0.020752,0.0247192
46,4,0.0238037,0.0286865,0.0332642,0.0192261,0.0158691,0.0466919,0.017395,0.0289917,0.0222778,0.0366211,-0.00823975,0.0238037,-0.00244141
47,0,0.00793457,0.0219727,0.0234985,0.0579834,0.012207,0.0241089,0.0671387,0.0195312,0.0244141,0.0262451,-0.00396729,0.0271606,-0.0668335
47,1,0.0271606,0.0234985,0.0180054,0.015564,0.0247192,0.0286865,0.00854492,0.0195312,0.017395,0.103149,-0.0152588,0.0265503,-0.0811768
47,2,0.0213623,0.0228882,0.0311279,0.027771,-0.00396729,-0.00366211,0.0332642,0.0369263,0.0335693,0.0402832,-0.0112915,0.0317383,-0.0177002
47,3,0.0186157,0.015564,0.0274658,0.0109863,0.0201416,0.0296021,0.0418091,0.0326538,0.0408936,0.0457764,-0.0234985,0.010376,-0.0228882
47,4,0.0326538,0.0219727,0.0262451,0.010376,0.0140381,0.0231934,0.0234985,0.0244141,0.0604248,0.0552368,-0.0387573,0.0393677,-0.00732422
48,0,0.0378418,0.0479126,0.0183105,0.00366211,0.0253296,0.0119019,0.0262451,0.0274658,0.0305176,0.039978,-0.043335,0.032959,-0.00823975
48,1,0.0311279,0.0552368,0.0222778,0.00335693,0.0131226,0.00854492,0.0344849,0.0247192,0.043335,0.00152588,-0.0326538,-0.00823975,-0.00183105
48,2,0.0216675,-0.0418091,0.0238037,0.0134277,0.0222778,0.000305176,0.0189209,0.0265503,0.0198364,0.0350952,-0.0360107,0.0189209,-0.0201416
48,3,0.0354004,0.050354,0.0149536,0.0210571,0.0112915,0.00213623,0.0280762,0.0598145,0.0213623,0.0296021,-0.0244141,0.0238037,-0.0119019
48,4,0.0549316,0.0256348,0.0198364,0.0317383,0.0262451,0.0201416,0.0424194,0.0430298,0.0241089,0.0299072,-0.0357056,0.0320435,-0.0115967
49,0,0.0326538,0.00640869,-0.0387573,0.00762939,0.0149536,0.0180054,0.0250244,0.0244141,0.00305176,0.0216675,-0.0344849,0.0320435,0.06073
49,1,0.0320435,0.0259399,0.00823975,0.0112915,0.00671387,0.0418091,0.0292969,0.0369263,0.0167847,0.0238037,-0.0286865,0.0369263,0.00244141
49,2,0.0369263,0.027771,0.0360107,0.00640869,0.0234985,0.0186157,0.020752,0.0274658,0.0369263,0.0256348,-0.032959,0.0320435,0.065918
49,3,0.0314331,0.0204468,0.0177002,0.0164795,0.0088501,0.0296021,0.0140381,0.0198364,0.0424194,0.0457764,-0.0384521,0.0448608,0.0549316
49,4,0.0372314,0.0234985,0.0305176,0.0213623,0.00640869,0.010376,0.0750732,0.0274658,0.0204468,0.0396729,-0.0189209,0.0317383,0.0479126
50,0,0.0524902,0.0152588,0.010376,0.0180054,0.00915527,0.0161743,0.0186157,0.0292969,0.0360107,0.010376,-0.0427246,0.022583,-0.000915527
50,1,0.0396729,0.00335693,0.0189209,-0.00671387,-0.00335693,0.0283813,-0.00366211,0.015564,0.0372314,-0.017395,-0.0421143,0.043335,0.0424194
50,2,0.0469971,0.0177002,0.0708008,0.0170898,0.0210571,0.0405884,0.0238037,0.0415039,0.0250244,0.027771,-0.0424194,0.0228882,0.0170898
50,3,0.0143433,0.0195312,0.0198364,0.0140381,0.0308228,0.0302124,0.0167847,0.0100708,0.0259399,0.0393677,-0.0338745,0.0305176,0.0183105
50,4,0.0311279,0.0512695,0.0213623,0.00366211,0.00457764,0.0256348,0.0189209,0.0213623,0.0247192,0.0292969,-0.0314331,0.0671387,0.0354004
51,0,0.0247192,0.0234985,0.0134277,0.0186157,0.00854492,0.0271606,0.0213623,0.0204468,0.0302124,0.020752,-0.0250244,0.00427246,0.0332642
51,1,0.0296021,0.017395,0.0747681,0.00976562,0.00854492,-0.0289917,0.00549316,0.0375366,0.0701904,0.0247192,-0.0262451,0.0146484,0.0320435
51,2,0.0244141,0.038147,0.0466919,0.017395,0.00854492,0.0576782,0.0183105,0.0228882,0.0396729,0.0402832,-0.0369263,-0.015564,0.0350952
51,3,0.00579834,0.0189209,0.0170898,0.0201416,0.0265503,0.0112915,-0.0271606,0.0167847,0.0296021,0.0482178,-0.0317383,0.0299072,0.050354
51,4,0.0357056,0.0372314,0.0332642,0.00610352,0.0253296,0.0189209,0.0210571,-0.0341797,0.0396729,0.055542,-0.0338745,0.032959,0.0369263
52,0,0.0314331,0.017395,0.0219727,0.0213623,0.0128174,0.0210571,0.0228882,0.0213623,0.0274658,0.0378418,-0.0332642,0.0512695,0.03479
52,1,0.0250244,0.0405884,0.0268555,0.0341797,0.00823975,0.0109863,0.0170898,-0.0134277,0.0192261,0.0344849,-0.0546265,0.0292969,0.0488281
52,2,0.0228882,0.0473022,0.0448608,0.00305176,0.00457764,-0.00366211,0.0164795,0.0189209,0.0375366,0.0238037,-0.0216675,0.0280762,0.0344849
52,3,0.0265503,0.027771,0.0280762,0.015564,0.00579834,0.0137329,0.0125122,0.00793457,0.0335693,0.0360107,-0.0714111,0.0299072,0.0366211
52,4,0.0268555,0.0222778,0.0314331,0.0317383,0.0137329,0.00976562,0.0088501,0.0109863,0.0460815,-0.0256348,-0.0177002,0.0274658,-0.00854492
53,0,0.0296021,0.0213623,0.0253296,0.00305176,0.0088501,0.0131226,0.010376,0.0234985,0.0256348,0.0161743,-0.0268555,0.0384521,-0.010376
53,1,0.0332642,0.0210571,0.0247192,0.015564,0.0369263,0.085144,0.0262451,0.0314331,0.038147,0.0222778,-0.0430298,0.0186157,0.03479
53,2,0.0427246,0.0256348,0.0210571,-0.0134277,0.0241089,0.022583,-0.0308228,0.0109863,0.0231934,-0.0192261,-0.0408936,0.0320435,0.0448608
53,3,0.0350952,0.0521851,0.0161743,0.0152588,0.0579834,0.0457764,0.0219727,0.00946045,0.0619507,0.0283813,-0.0357056,0.0216675,0.0598145
53,4,0.032959,0.0332642,0.0137329,0.0234985,0.0183105,0.0219727,0.0146484,0.0238037,0.0750732,0.0338745,-0.0320435,-0.00213623,0.045166
54,0,0.0344849,0.0167847,0.0622559,0.0308228,0.0253296,0.0146484,0.0131226,0.0357056,0.0268555,0.0292969,-0.0436401,0.0335693,0.0933838
54,1,0.0228882,0.0250244,0.0296021,0.0100708,0.0134277,-0.0698853,0.00823975,0.0280762,0.012207,0.0244141,-0.0378418,0.0384521,0.0585938
54,2,0.0265503,0.0213623,-0.0164795,0.0161743,0.0186157,0.0286865,0.0216675,0.0265503,0.0717163,0.0393677,-0.03479,0.0668335,0.050354
54,3,0.0219727,0.015564,0.0283813,-0.000915527,0.0186157,0.0265503,0.00732422,0.0125122,0.0289917,0.0622559,-0.0289917,0.0518799,0.0540161
54,4,0.0177002,0.0140381,0.0320435,0.0201416,0.0177002,-0.00732422,0.0231934,0.0128174,0.0286865,0.0424194,-0.0320435,0.0408936,0.0567627
55,0,0.0494385,0.0238037,0.0268555,0.00549316,0.0534058,0.0262451,0.0180054,-0.0408936,0.022583,0.0341797,-0.00823975,0.0357056,0.0546265
55,1,0.0180054,0.0183105,0.0314331,0.0164795,0.0164795,0.0170898,0.03479,0.0137329,0.0088501,0.0177002,-0.0268555,0.0265503,-0.0140381
55,2,0.00976562,0.0283813,0.0378418,0.0143433,0.0244141,0.0326538,0.0195312,0.0146484,-0.00274658,0.0250244,-0.0341797,0.0161743,0.0378418
55,3,0.0109863,0.0256348,0.0430298,0.0250244,0.0238037,0.017395,0.0231934,0.0219727,0.00335693,0.0311279,-0.0445557,0.0460815,0.0363159
55,4,0.012207,0.00854492,0.0430298,0.017395,0.0271606,0.00793457,0.00335693,0.0335693,0.00305176,0.0256348,-0.0311279,0.00793457,0.0323486
56,0,0.0302124,0.039978,0.0390625,0.0762939,0.0375366,0.0204468,-0.0494385,0.00915527,0.0134277,0.0604248,-0.0393677,0.0247192,0.0088501
56,1,0.0268555,0.0323486,0.0302124,0.017395,0.0411987,0.0128174,0.015564,0.0213623,0.0125122,0.0274658,-0.0482178,0.0146484,0.0527954
56,2,0.0323486,0.0430298,0.0210571,0.0204468,0.0341797,0.0125122,0.0088501,0.0164795,0.0213623,0.0149536,-0.0332642,0.020752,0.0570679
56,3,0.0405884,0.0439453,0.0338745,0.0186157,0.0195312,0.00152588,0.0177002,0.00610352,0.0186157,0.0286865,-0.0314331,0.0161743,0.0595093
56,4,0.0149536,0.0488281,0.0314331,0.0378418,0.0140381,0.017395,0.03479,0.00610352,0.00823975,0.0262451,-0.0332642,0.0280762,0.0338745
57,0,0.0308228,0.0332642,0.0570679,0.0305176,0.027771,0.0439453,0.0256348,0.00732422,-0.00671387,0.0222778,-0.0445557,-0.0180054,0.0219727
57,1,0.0210571,0.0195312,0.022583,0.0177002,0.015564,0.0778198,0.0314331,-0.0012207,0.00305176,0.0088501,-0.0402832,0.0335693,0.062561
57,2,0.050354,-0.00274658,0.0271606,0.0360107,0.00793457,0.00701904,0.0323486,0.0125122,0.0216675,0.0186157,-0.0378418,-0.0323486,0.0683594
57,3,0.0442505,0.0418091,0.0653076,0.00793457,0.0198364,0.0158691,0.0216675,0.010376,0.0366211,0.0299072,-0.0415039,0.0402832,0.0866699
57,4,0.0543213,0.00793457,0.0158691,0.0552368,0.00671387,-0.00305176,-0.0387573,0.0134277,0.0189209,0.0320435,-0.0650024,0.0442505,0.0912476
58,0,0.0531006,0.0177002,0.0167847,0.0128174,0.0604248,0.00610352,0.00183105,0.0262451,0.0299072,0.038147,-0.0430298,0.0253296,0.0198364
58,1,0.032959,0.0259399,0.0158691,0.0247192,0.0164795,-0.0134277,0.0149536,0.0158691,0.0244141,0.039978,-0.0411987,0.0405884,0.0244141
58,2,0.0259399,0.0152588,0.00427246,0.0274658,0.0189209,0.00793457,0.0299072,0.0146484,0.0210571,0.0537109,-0.0335693,0.0265503,0.0375366
58,3,0.00762939,-0.0143433,0.00671387,0.0411987,0.00854492,0.0119019,0.0372314,0.0500488,0.0335693,0.0323486,-0.0360107,0.032959,0.0421143
58,4,0.0344849,0.0375366,0.00793457,0.0317383,0.00823975,0.00640869,0.0454712,0.0134277,0.0311279,0.0344849,-0.0430298,0.0189209,0.0479126
59,0,0.0430298,0.00915527,0.0250244,0.0271606,0.0109863,0.0216675,0.0247192,0.0317383,0.0140381,0.0283813,-0.0372314,0.0170898,0.057373
59,1,0.0628662,0.0228882,0.0305176,0.0177002,0.0189209,0.0012207,0.00488281,0.0128174,0.0161743,0.0405884,-0.0262451,0.0442505,0.0595093
59,2,0.0189209,0.0256348,0.00488281,0.0335693,0.012207,0.0546265,0.00183105,0.0183105,-0.0390625,0.0259399,-0.0186157,0.06073,0.0546265
59,3,0.0424194,0.03479,0.0283813,0.0241089,0.0253296,0.00946045,0.0112915,-0.0119019,0.0128174,0.0341797,-0.0759888,0.0305176,0.0762939
59,4,0.0335693,0.0308228,0.0164795,0.020752,-0.0460815,0.0109863,0.0259399,0.020752,0.0335693,0.0320435,-0.0283813,0.0201416,0.0479126
60,0,0.0390625,0.0308228,0.0259399,0.0170898,0.0189209,0.0485229,0.0311279,0.00305176,0.0164795,0.022583,-0.0396729,0.0411987,0.0521851
60,1,0.0372314,0.0384521,-0.03479,0.0338745,0.0299072,0.043335,0.00793457,0.0012207,0,0.0201416,-0.0463867,0.0311279,0.0341797
60,2,0.0311279,0.0268555,0.0128174,0.0463867,0.0357056,0.00579834,-0.00579834,0.0119019,0.020752,0.0204468,-0.0244141,0.0384521,0.0524902
60,3,0.0271606,0.0354004,0.0314331,0.0375366,0.0161743,0.0195312,-0.0402832,0.032959,0.0210571,0.0405884,-0.0167847,0.020752,0.0808716
60,4,0.0320435,0.0128174,0.0259399,-0.0311279,0.0363159,0.0106812,-0.039978,0.0341797,0.0134277,0.0292969,-0.00793457,0.0286865,-0.00610352
61,0,0.00976562,0.0292969,-0.00823975,0.050354,0.0302124,0.0924683,-0.0140381,0.0219727,0.0717163,0.0112915,-0.0125122,0.0509644,0.0204468
61,1,0.0357056,0.0234985,0.0469971,0.0238037,0.0689697,0.00946045,-0.00915527,-0.03479,-0.00671387,0.0250244,-0.0195312,0.0158691,0.0366211
61,2,0.03479,0.0411987,0.0228882,0.0384521,0.0546265,0.00518799,0.0137329,0.0149536,0.0323486,0.022583,-0.0149536,0.0201416,0.0323486
61,3,0.00396729,0.0195312,0.0289917,0.0375366,0.0872803,0.0210571,-0.00579834,0.0384521,0.0268555,0.0317383,0.00457764,0.0186157,0.0256348
61,4,0.0326538,0.0305176,0.0311279,0.0390625,0.0317383,0.0186157,-0.00427246,0.0308228,0.0189209,0.0274658,-0.0228882,0.0369263,0.0289917
62,0,0.0344849,0.0283813,0.0830078,0.0405884,0.0262451,0.0534058,0.0143433,0.0402832,0.0848389,0.0369263,-0.0299072,0.0415039,0.0378418
62,1,0.0665283,0.0354004,0.0335693,0.0265503,0.0259399,0.00854492,0.012207,0.00915527,0.0167847,0.0198364,-0.0485229,0.0354004,0.0299072
62,2,0.0192261,0.0204468,0.0241089,0.0119019,0.0161743,0.0259399,0.0344849,0.0125122,0.00366211,0.0234985,-0.017395,0.0650024,0.0387573
62,3,0.0357056,0.0192261,0.0323486,0.0338745,0.0317383,0.0332642,0.00976562,0.015564,0.0204468,0.0268555,-0.0180054,0.0253296,0.0405884
62,4,-0.00457764,0.0411987,0.0280762,0.0265503,0.0228882,0.0296021,0.00640869,0.0198364,0.0247192,-0.0149536,-0.0552368,0.00549316,0.057373
63,0,0.0436401,0.0289917,0.0335693,0.0558472,0.0128174,0.022583,0.0198364,-0.000305176,0.0286865,0.0723267,-0.0296021,0.0265503,0.0753784
63,1,0.0372314,0.0192261,0.039978,0.0387573,0.0241089,0.0265503,0.0180054,0.0109863,0.0119019,0.00640869,-0.0201416,0.0201416,0.00305176
63,2,0.0289917,0.0344849,0.0341797,0.0494385,0.0234985,0.0158691,0.0317383,0.0222778,0.0219727,-0.00732422,-0.0253296,0.0164795,-0.00396729
63,3,0.0326538,0.0457764,0.0366211,0.0341797,-0.0363159,0.0360107,0.0305176,0.0454712,0.0088501,0.0201416,-0.0125122,0.0396729,0.0546265
63,4,0.0427246,0.0213623,0.0228882,0.0296021,0.0228882,0.027771,0.0247192,0.0198364,0.0137329,-0.00640869,-0.0189209,0.0299072,0.0613403
64,0,-0.0189209,0.0378418,0.0219727,0.0231934,0.0280762,0.0289917,0.0216675,0.0216675,-0.00305176,0.0201416,-0.0189209,0.0231934,0.0604248
64,1,0.0357056,0.0228882,0.0296021,0.0335693,0.0250244,0.0152588,0.027771,0.00396729,0.0119019,-0.00183105,-0.0146484,0.0311279,0.032959
64,2,0.0311279,0.0515747,0.0271606,0.0393677,-0.0241089,0.0134277,0.0164795,0.0683594,0.0128174,0.00701904,-0.0177002,0.0430298,0.0375366
64,3,0.0302124,0.0292969,0.0332642,0.020752,0.0302124,0.0402832,0.0378418,0.0238037,0.0152588,0.0308228,-0.0152588,0.0189209,0.0430298
64,4,0.022583,0.015564,0.0299072,0.0286865,0.050354,-0.00183105,0.0323486,0.0219727,0.00396729,0.0183105,-0.0222778,0.0296021,0.0387573
65,0,0.0222778,0.038147,0.038147,0.0274658,0.0271606,0.0186157,0.0268555,0.0125122,0.00915527,0.0662231,-0.0241089,0.0244141,0.0210571
65,1,0.0411987,-0.0231934,0.038147,0.027771,-0.000915527,0.0115967,0.0128174,0.0320435,0.015564,0.0283813,-0.027771,0.0177002,0.0378418
65,2,0.0698853,0.0219727,0.0241089,0.0552368,0.0283813,0.0167847,0.0637817,0.0152588,0.0198364,0.0341797,0.00305176,0.0372314,-0.0140381
65,3,0.0363159,0.0234985,0.0259399,0.015564,0.0308228,0.0183105,0.0292969,0.0158691,-0.00549316,-0.00274658,-0.0314331,0.0256348,0.0448608
65,4,0.0283813,0.0296021,0.0384521,0.0222778,0.0308228,0.0183105,0.0231934,0.017395,0.00793457,0.0350952,-0.0125122,0.0183105,0.0238037
66,0,0.0296021,0.0360107,0.0454712,0.03479,0.0482178,0.00823975,0.0326538,-0.0109863,0.0143433,0.0292969,-0.0164795,0.0531006,0.0439453
66,1,0.00305176,0.0375366,0.0115967,0.038147,-0.00610352,0.0384521,0.027771,-0.0390625,0.00579834,0.0244141,-0.0210571,0.0354004,0.055542
66,2,0.03479,0.0247192,0.0280762,0.0228882,0.0408936,0.0320435,0.0390625,0.00732422,0.0134277,-0.0210571,-0.0234985,0.022583,-0.00640869
66,3,0.0268555,-0.0228882,0.0228882,0.0265503,0.0283813,0.0265503,0.0408936,0.00396729,0.00213623,0.0314331,-0.0216675,-0.0292969,0.0634766
66,4,-0.0125122,0.0326538,0.0262451,0.0531006,0.0180054,0.020752,0.0439453,0.0280762,0.0137329,0.010376,-0.0375366,0.0125122,0.0701904
67,0,0.0198364,0.0183105,-0.0219727,0.0106812,0.0262451,-0.00915527,0.00946045,0.0088501,-0.0271606,0.0415039,-0.0341797,-0.0231934,0.0540161
67,1,0.0143433,0.0231934,0.0897217,0.0274658,0.0350952,0.0830078,0.0201416,0.00183105,0.00671387,0.0204468,-0.0167847,0.0231934,0.0387573
67,2,0.0265503,0.0341797,0.0335693,0.0271606,0.022583,-0.038147,0.0344849,0.0100708,0.00518799,0.0109863,-0.015564,0.0216675,0.0476074
67,3,0.0167847,0.0338745,0.0558472,0.0372314,0.0305176,-0.0234985,0.0149536,0.0115967,0.0161743,0.0350952,-0.0234985,0.0195312,0.0482178
67,4,-0.0231934,0.0317383,0.0280762,0.0128174,0.0366211,0.0311279,0.0875854,0.0152588,0.0177002,0.0485229,-0.0119019,0.00854492,0.0506592
68,0,0.0100708,0.0204468,0.0375366,0.0302124,0.0350952,0.0396729,0.0112915,0.00610352,0.00579834,0.00946045,-0.0262451,0.0726318,0.0265503
68,1,0.0332642,0.0189209,0.0418091,-0.0192261,0.0439453,0.0286865,0.0402832,0.00396729,0.00976562,-0.00213623,-0.022583,0.0112915,0.0494385
68,2,0.0280762,0.0396729,0.0219727,0.0378418,0.0372314,0.00396729,0.0250244,0.0787354,0.0299072,0.00244141,-0.0540161,0.0448608,0.0509644
68,3,0.0482178,0.0271606,0.039978,0.0372314,0.039978,0.0213623,0.0244141,0.0280762,0.0256348,0.00366211,-0.0140381,0.017395,0.0442505
68,4,0.0317383,0.0234985,0.0430298,0.0393677,0.0106812,0.0210571,0.0305176,0.0534058,0.0274658,0.00518799,-0.022583,-0.0119019,0.0424194
69,0,0.0256348,0.00823975,0.0183105,0.0210571,0.0219727,-0.00762939,0.0344849,0.0210571,-0.000305176,0.00183105,-0.017395,0.0317383,0.0469971
69,1,0.00793457,0.0238037,0.065918,0.0265503,0.0177002,0.0128174,0.0341797,0.0454712,0.0146484,-0.000915527,-0.0256348,0.0241089,0.0408936
69,2,0.0582886,0.0280762,0.0378418,0.0158691,0.020752,0.0292969,0.0238037,0.0268555,0.0161743,-0.0112915,-0.0500488,0.00518799,0.0445557
69,3,0.0180054,0.032959,0.0473022,0.0338745,0.0204468,-0.0146484,0.0195312,0.0170898,-0.017395,-0.00762939,-0.020752,0.0308228,0.0442505
69,4,0.0088501,0.0271606,0.0256348,0.0390625,0.0250244,0.0320435,0.0610352,-0.00640869,0.00366211,-0.000305176,-0.0119019,0.0128174,0.0299072
70,0,0.0341797,0.0164795,0.0228882,0.0195312,0.0204468,0.0341797,0.0256348,0.0088501,0.00579834,0.00183105,-0.0161743,0.0234985,0.0201416
70,1,-0.0228882,0.0149536,0.0424194,0.0421143,0.0192261,0.0354004,0,0.00732422,-0.0158691,-0.0088501,-0.0186157,0.00671387,0.0402832
70,2,0.0177002,0.0143433,0.0283813,0.027771,0.0326538,0.027771,0.0482178,0.0170898,0.0213623,0.00946045,-0.00732422,0.0344849,0.0549316
70,3,0.0167847,0.017395,0.00762939,0.0250244,0.0253296,-0.0164795,0.0164795,0.0189209,0.00793457,0.0164795,-0.0195312,0.0244141,0.050354
70,4,0.0241089,0.0137329,0.0283813,0.0195312,-0.0177002,0.0372314,0.0323486,0.0167847,0.0100708,0.00823975,-0.0408936,0.0244141,0.0439453
71,0,0.0289917,0.0186157,0.0222778,0.0234985,0.0366211,0.0320435,0.0177002,0.0137329,0.0131226,-0.00213623,-0.0115967,0.00854492,0.0213623
71,1,0.00762939,-0.0186157,0.020752,0.0317383,-0.0271606,0.00488281,0.0192261,0.00762939,0.00518799,0.0109863,-0.0210571,0.0158691,0.00823975
71,2,0.0231934,0.00732422,0.0369263,0.0375366,0.0283813,0.0143433,0.020752,0.0457764,0.0152588,0.0164795,-0.0286865,0.0189209,-0.0231934
71,3,0.022583,0.0222778,0.0302124,0.0500488,0.0265503,0.0234985,0.032959,0.0152588,0.0152588,0.0125122,-0.00488281,-0.0134277,-0.0982666
71,4,0.0231934,0.0317383,0.0411987,0.0314331,0.0344849,0.039978,0.022583,0.0296021,0.0128174,0.0198364,-0.00854492,-0.00732422,-0.236206
72,0,0.0280762,0.0375366,0.09552,0.027771,0.0396729,0.0769043,0.0292969,0.00976562,0.0698853,0.0128174,0.00488281,-0.0436401,-0.233765
72,1,0.0109863,0.0128174,0.0271606,0.0161743,0.0418091,0.032959,0.0305176,-0.00976562,0.0213623,0.0402832,-0.0149536,0.0201416,-0.162659
72,2,0.00823975,0.0149536,0.03479,0.0186157,0.022583,0.0369263,0.0372314,0.0299072,0.00579834,-0.0213623,-0.0088501,0.0152588,-0.263062
72,3,0.0778198,0.0302124,0.0338745,-0.0231934,0.0387573,0.0311279,0.0396729,0.0415039,0.010376,0.0134277,-0.015564,0.0204468,-0.395203
72,4,0.0152588,0.0219727,0.0152588,0.0274658,0.0415039,0.0247192,0.0408936,0.020752,0.00335693,0.00823975,0.000915527,0.0250244,-0.167847
73,0,0.0256348,0.0311279,0.0259399,0.0326538,-0.00732422,0.0228882,0.0308228,0.0662231,0.00396729,0.0161743,-0.017395,0.0396729,-0.0891113
73,1,0.0125122,0.0137329,0.0326538,0.0112915,0.0332642,0.0292969,0.0256348,-0.0338745,0.0143433,0.0152588,-0.0216675,0.0158691,-0.17395
73,2,0.0268555,0.0231934,0.0198364,0.0149536,0.0411987,0.0396729,0.0189209,0.0152588,0.0357056,0.0088501,-0.0164795,-0.0366211,-1.04034
73,3,0.0259399,0.00579834,0.0234985,0.0338745,0.0396729,0.0317383,0.0430298,0.00671387,0.00427246,-0.000915527,-0.0238037,0.0268555,-1.21521
73,4,0.0140381,-0.0335693,0.0265503,0.0292969,0.0311279,0.0299072,0.0592041,0.0268555,0.00671387,-0.00732422,-0.0137329,0.0204468,-1.09589
74,0,-0.00488281,0.0241089,0.0363159,0.0167847,0.0372314,0.0360107,0.0512695,0.00732422,0.00976562,0.00640869,-0.0216675,0.0140381,-0.986023
74,1,0.0253296,0.00671387,0.0271606,0.0283813,0.0585938,0.0387573,0.0149536,0.000610352,0.010376,0.0582886,-0.0317383,0.0216675,-0.841064
74,2,0.00671387,0.0238037,0.0500488,0.0219727,0.0488281,0.0274658,0.0460815,0.0198364,0.0012207,0.0241089,-0.0259399,0.0244141,-0.733948
74,3,0.0198364,0.0161743,0.000610352,0.0256348,0.0482178,0.0143433,0.0476074,0.0137329,0.0296021,0.0189209,-0.0204468,0.0704956,-0.606689
74,4,0.0128174,0.0088501,0.0341797,0.0296021,0.0466919,0.0372314,0.0247192,0.0100708,0.0296021,0.0167847,-0.00640869,0.0143433,-0.516357
75,0,-0.0280762,0.020752,0.0241089,0.0286865,0.0289917,0.0234985,0.0378418,0.027771,0.0253296,0.0177002,-0.0241089,0.0131226,-0.4422
75,1,0.00762939,0.0247192,0.0259399,0.0378418,0.0393677,0.0466919,0.00427246,0.0164795,0.0177002,0.00732422,-0.0149536,-0.039978,-0.353394
75,2,0.00274658,-0.00335693,0.0247192,0.0189209,0.012207,0.0250244,0.0335693,0.010376,0.0201416,0.0363159,-0.0469971,0.00366211,-0.319824
75,3,-0.000610352,0.0180054,0.015564,0.0238037,0.0164795,0.0366211,-0.00152588,0.0408936,0.0247192,0.00701904,-0.0482178,0.00152588,-0.181274
75,4,0.0143433,0.0497437,0.0241089,0.0299072,0.0482178,0.0250244,0.0143433,0.039978,0.0296021,0.0192261,0.00671387,-0.00396729,-0.145264
76,0,0.00640869,0.0152588,0.0238037,0.0271606,0.0427246,0.0485229,0.0128174,-0.0238037,0.0137329,0.015564,-0.0109863,0.022583,-0.0942993
76,1,0.0109863,0.0738525,0.0302124,0.0250244,0.00488281,0.0595093,0.0137329,-0.00946045,0.0259399,0.0247192,-0.0137329,0.0177002,-0.0415039
76,2,-0.0341797,0.0302124,0.0271606,-0.0491333,0.0201416,0.0283813,0.0454712,0.0149536,0.0198364,0.0231934,0.00305176,0.00488281,-0.00823975
76,3,0.0283813,0.0112915,-0.00732422,0.0354004,0.0234985,0.0646973,0.022583,0.0213623,0.0152588,0.00244141,-0.00274658,0.0161743,0.0320435
76,4,0.0186157,0.0149536,0.0201416,0.0228882,0.0354004,0.0341797,0.0500488,0.032959,0.0247192,0.0445557,-0.0167847,-0.00671387,0.0454712
77,0,0.00854492,0.0131226,0.015564,0.0265503,0.0396729,0.0283813,0.0436401,0.0674438,0.0228882,0.0195312,-0.0308228,0.0106812,0.0970459
77,1,0.0518799,0.0186157,0.0238037,-0.0262451,0.0344849,0.0201416,0.0872803,0.0170898,0.0234985,-0.062561,-0.0100708,0.0183105,0.142212
77,2,0.00427246,0.0125122,0.00305176,0.0109863,0.0430298,0.012207,0.0305176,0.0372314,0.055542,0.00671387,-0.020752,0.0210571,0.135498
77,3,0.00732422,-0.0256348,0.0305176,0.0283813,0.0747681,0.0244141,0.0112915,0.0262451,0.0250244,0.00396729,-0.0201416,0.00976562,0.149841
77,4,0.0216675,0.000610352,0.0296021,0.027771,0.0296021,0.0509644,0.0247192,0.0469971,0.0390625,0.00183105,-0.0186157,-0.0140381,0.157166
78,0,0.0665283,0.00793457,0.0250244,0.027771,0.0402832,0.0408936,0.0262451,0.038147,0.0283813,-0.00457764,-0.039978,0.00518799,0.175171
78,1,0.00640869,0.0128174,0.0238037,0.0378418,0.043335,0.0460815,0.0265503,0.032959,-0.00457764,0.0137329,-0.0222778,0.0210571,0.19104
78,2,0.00518799,0.0231934,0.0668335,0.0115967,0.0265503,0.0436401,0.0219727,0.0302124,0.0161743,0.0100708,-0.0192261,0.00854492,0.258484
78,3,0.0180054,0.0274658,0.0201416,0.0259399,0.038147,0.0271606,0.0289917,0.0335693,0.0421143,0.0164795,-0.0189209,0.0537109,0.220032
78,4,-0.00213623,0.0634766,0.0259399,0.0177002,0.0927734,0.0357056,0.0317383,0.0567627,0.0131226,0.00274658,-0.00793457,0.010376,0.218811
79,0,0.0115967,0.015564,0.0210571,0.0250244,0.0213623,0.0112915,0.0247192,0.00793457,0.0177002,0.0180054,-0.0292969,0.0219727,0.241089
79,1,0.0109863,0.0109863,0.0189209,0.0650024,0.020752,0.0344849,0.0296021,0.0479126,0.0308228,0.0292969,-0.0152588,0.0131226,0.269775
79,2,0.00946045,-0.0265503,0.0305176,0.0332642,0.0512695,0.0363159,0.0201416,0.0561523,0.0286865,0.00396729,-0.0201416,0.00793457,0.259705
79,3,0.00640869,0.0109863,0.0662231,0.00549316,0.0253296,0.0241089,0.0350952,0.022583,-0.00396729,0.0198364,-0.0265503,0.0515747,0.278931
79,4,0.0158691,0.000305176,0.012207,-0.00549316,0.0140381,0.0299072,-0.0259399,0.00762939,0.0299072,0.010376,0.012207,-0.0106812,0.265808
80,0,0.0158691,0.0363159,0.0128174,0.0286865,0.0320435,0.0366211,0.0396729,0.0637817,0.0213623,0.00671387,-0.00305176,0.0238037,0.287476
80,1,-0.057373,0.0140381,0.0109863,0.0454712,0.0442505,0.0256348,0.0262451,0.0344849,0.0369263,0.0216675,-0.0100708,0.010376,0.276794
80,2,0.00152588,0.0231934,0.0210571,0.0662231,0.043335,0.0183105,0.0662231,0.00976562,0.022583,0.0289917,0.0170898,0.0149536,0.233459
80,3,0.0149536,0.0204468,0.0088501,0.00152588,0.0292969,0.020752,0.0161743,0.0231934,0.0396729,0.0222778,-0.0186157,0.0271606,0.279236
80,4,0.0134277,0.0213623,0.0247192,0.0198364,0.0283813,0.0308228,0.0271606,0.0183105,0.0497437,0.0247192,-0.0192261,0.032959,0.295105
81,0,0.00732422,0.0131226,-0.00274658,0.0280762,0.0344849,0.0308228,0.03479,0.027771,0.0390625,0.0378418,-0.0421143,0.0088501,0.274353
81,1,0.00701904,0.0177002,0.0192261,0.00732422,0.0280762,0.0469971,0.0448608,0.0396729,0.0219727,0.0262451,-0.0234985,0.00762939,0.281067
81,2,0.0125122,0.0396729,-0.0387573,0.0131226,0.0292969,0.0588989,0.0296021,0.0195312,0.0305176,0.0250244,-0.0238037,-0.00335693,0.30304
81,3,0.0372314,0.0106812,0.0100708,0.0250244,0.0213623,0.0341797,0.000610352,0.0299072,0.0491333,0.0695801,-0.0210571,0.00549316,0.283813
81,4,0.0259399,0.00610352,0.0140381,0.0186157,0.012207,0.0405884,0.0228882,0.0323486,0.0250244,0.0320435,-0.0549316,0.0170898,0.283508
82,0,0.0183105,0.0341797,0.0128174,0.0186157,0.00671387,0.0405884,0.0280762,0.0454712,0.0369263,0.0253296,-0.0189209,-0.00732422,0.275269
82,1,0.00976562,0.00732422,0.0112915,0.015564,0.0100708,0.0292969,0.0286865,0.0204468,0.0482178,0.0390625,-0.017395,0.0186157,0.264282
82,2,0.0213623,0.0189209,0.0112915,0.0158691,0.0234985,0.039978,0.0241089,0.0262451,0.0332642,0.038147,-0.0158691,0.00854492,0.266113
82,3,0.0180054,-0.00732422,0.00518799,0.0131226,0.0119019,0.0759888,0.0384521,0.022583,0.000610352,0.03479,-0.0210571,0.0274658,0.276489
82,4,0.000915527,0.0238037,0.0216675,0.0265503,0.0183105,0.0305176,0.0332642,-0.00427246,0.0335693,0.0320435,-0.015564,0.0259399,0.276794
83,0,0.0582886,0.0170898,0.022583,-0.00305176,0.0152588,-0.00305176,0.0012207,0.0311279,0.0430298,0.0759888,0.0177002,0.00854492,0.313721
83,1,-0.0119019,0.0219727,0.0195312,-0.00854492,0.00152588,0.0210571,0.0561523,0.0436401,0.0320435,0.0320435,-0.0415039,0.0137329,0.272217
83,2,0.0109863,0.0012207,0.0161743,-0.00610352,0.0137329,0.0231934,0.0994873,0.0296021,0.0283813,0.0360107,-0.0152588,0.0210571,0.245056
83,3,0.0524902,0.0222778,0.0219727,0.0219727,0.0241089,0.010376,0.0262451,0.0250244,0.0262451,0.038147,-0.0442505,0.0244141,0.244141
83,4,0.00152588,-0.0350952,0.00305176,0.0152588,0.0811768,0.0305176,0.0317383,0.101318,0.0405884,0.0299072,-0.0167847,0.0146484,0.238037
84,0,0.00183105,0.0115967,-0.00488281,0.017395,0.0299072,0.0305176,0.0177002,0.0350952,0.0408936,0.0326538,-0.0262451,0.0183105,0.206299
84,1,0.055542,0.0238037,-0.00274658,0.00762939,0.0247192,0.0363159,0.0253296,0.0228882,0.0601196,0.038147,-0.0289917,0.0219727,0.216675
84,2,0.0332642,0.00366211,0.000610352,0.00915527,-0.00549316,0.0366211,0.0268555,0.0216675,0.0323486,-0.0222778,-0.0201416,0.0213623,0.183716
84,3,0.012207,0.0140381,0.0088501,0.00671387,0.0210571,-0.017395,0.0180054,0.0262451,-0.015564,-0.0183105,-0.022583,-0.0152588,0.255127
84,4,0.0216675,0.00579834,0.00579834,0.0271606,0.0308228,0.0253296,0.0274658,0.0158691,0.0314331,0.0128174,-0.0302124,0.0775146,0.245972
85,0,0,0.0640869,0.00946045,0.00518799,0.0283813,0.0283813,0.0323486,0.0161743,0.020752,0.00762939,-0.0170898,0.0280762,0.195312
85,1,0.017395,0.0137329,0.0244141,0.00671387,0.020752,0.0250244,0.032959,0.0363159,0.0228882,0.00854492,-0.0262451,0.072937,0.185242
85,2,0.0302124,0.00732422,0.0125122,0.010376,0.0109863,0.0219727,0.0463867,0.0198364,0.0201416,0.0421143,-0.0247192,0.00610352,0.161743
85,3,0.0280762,0.0247192,-0.00732422,0.0183105,-0.00305176,0.0369263,0.0494385,0.0393677,0.0192261,0.0335693,-0.0213623,-0.00579834,0.192871
85,4,0.0262451,0.0152588,0.0509644,0.0149536,0.0170898,0.0317383,0.0238037,0.0375366,0.0244141,0.0445557,-0.0332642,0.0228882,0.184326
86,0,0.0189209,0.0161743,0.0125122,-0.0457764,0.0115967,0.0112915,0.0299072,0.0189209,0.0485229,0.0292969,-0.0231934,0.0274658,0.163269
86,1,-0.0460815,0.00701904,0.00183105,0.0164795,0.0149536,0.0109863,0.00396729,0.0396729,0.0476074,0.0726318,-0.0482178,0.0222778,0.160522
86,2,0.0430298,0.0112915,-0.0140381,0.00854492,0.0299072,0.00854492,0.0265503,0.0366211,0.0350952,0.0341797,-0.0357056,0.0405884,0.169373
86,3,0.0204468,0.000305176,0.00366211,0.0167847,0.0143433,0.0219727,0.0292969,0.0469971,0.03479,0.0546265,0.00305176,0.0210571,0.172424
86,4,0.0161743,0.0286865,-0.00732422,0.0271606,0.00274658,0.012207,0.0311279,0.0350952,0.0439453,0.0283813,-0.0143433,0.0119019,0.137024
87,0,-0.0259399,0.027771,-0.000610352,0.00305176,0.020752,0.0198364,-0.0228882,0.0411987,0.0250244,0.0387573,-0.00152588,0.0280762,0.10437
87,1,0.0222778,0.0128174,-0.00732422,0.00701904,0.00488281,0.0198364,0.0299072,0.0363159,0.00305176,0.0195312,-0.0213623,-0.0375366,0.100708
87,2,0.0271606,0.00793457,0.0213623,0.0308228,-0.000915527,0.0244141,0.0274658,0.0384521,0.0241089,0.0384521,-0.0189209,-0.00427246,0.161438
87,3,0.0192261,0.0119019,0.017395,0.0119019,0.0189209,0.0268555,0.0146484,0.020752,0.0271606,0.032959,-0.0222778,0.0219727,0.145874
87,4,0.0244141,0.0234985,0.0161743,0.00579834,0.0167847,0.0289917,0.017395,0.0259399,0.0177002,0.0601196,-0.00396729,0.0201416,0.0454712
88,0,0.0827026,0.0308228,-0.00274658,0.085144,0.0164795,0.0326538,0.0827026,0.0326538,0.0335693,0.085144,-0.0494385,0.0299072,0.184326
88,1,0.0280762,0.0167847,0.0012207,0.0234985,0.0189209,0.0253296,0.0292969,0.0201416,0.0378418,0.0384521,-0.0268555,-0.0238037,0.118713
88,2,0.0234985,0.0186157,0.0228882,-0.0250244,0.020752,0.0149536,0.06073,0.0375366,0.032959,0.0299072,-0.0170898,0.0231934,0.115051
88,3,0.0140381,0.0350952,-0.0286865,0.0149536,0.0213623,0.0244141,0.0384521,0.0262451,0.0616455,0.0366211,-0.0283813,0.0134277,0.114746
88,4,0.020752,-0.017395,0.0152588,0.0183105,-0.0369263,0.0140381,0.0201416,-0.00518799,0.0241089,0.0265503,-0.0189209,0.0186157,0.115967
89,0,0.0228882,0.0183105,0.00427246,0.0177002,0.0823975,0.0192261,0.0286865,0.083313,0.017395,0.0088501,-0.0231934,0.0189209,0.111084
89,1,0.0186157,0.027771,0.020752,0.0311279,0.0201416,0.0112915,0.0241089,-0.0247192,0.0134277,0.0375366,0.00701904,0.0192261,0.108337
89,2,0.0311279,0.0244141,0.00579834,0.0180054,0.0357056,0.0234985,0.03479,0.0473022,0.00488281,0.0302124,-0.0296021,0.00946045,0.0939941
89,3,0.0357056,0.0299072,0.0213623,0.00518799,0.0128174,0.00488281,0.0305176,0.0335693,-0.0131226,0.0286865,-0.0265503,0.0390625,0.09552
89,4,0.039978,0.0247192,0.0125122,0.0250244,0.00457764,0.0216675,0.0363159,0.03479,0.0323486,0.0231934,-0.0271606,0.0271606,0.118103
90,0,0.0219727,0.0241089,0.0128174,0.0344849,0.0183105,-0.00213623,0.0366211,0.0234985,0.0665283,0.0140381,-0.0204468,0.0238037,0.103455
90,1,0.0292969,0.0192261,0.00183105,0.0119019,0.0186157,0.010376,0.0418091,-0.0012207,0.0314331,0.0866699,-0.0314331,0.0180054,0.0540161
90,2,0.0161743,0.0143433,0.045166,0.0177002,0.0204468,0.0289917,0.0265503,0.0308228,0.0274658,0.0167847,-0.0350952,0.0161743,0.108643
90,3,0.0250244,0.0216675,0.0189209,0.00610352,0.00854492,0.0167847,0.020752,0.0231934,0.0216675,0.0427246,-0.0311279,0.0125122,0.0900269
90,4,-0.0247192,0.0210571,0.022583,0.0311279,0.00518799,0.0302124,0.0393677,0.0256348,0.012207,0.0253296,-0.0265503,0.0289917,0.0906372
91,0,0.0250244,0.0204468,0.00579834,0.0222778,0.0653076,0.0302124,0.0238037,0.0250244,0.0259399,0.0320435,-0.0320435,0.00488281,0.0991821
91,1,0.0286865,0.012207,0.017395,0.022583,0.017395,0.0088501,0.0396729,0.0320435,0.0238037,0.0308228,-0.0390625,0.00946045,0.0698853
91,2,0.0402832,0.0012207,0.0128174,0.00793457,-0.0469971,0.0299072,0.0387573,0.00823975,0.0283813,0.0177002,-0.0332642,0.0244141,0.0793457
91,3,0.0259399,0.0137329,0.0320435,0.0161743,0.015564,0.0546265,0.0360107,0.0201416,-0.0222778,0.0167847,-0.0292969,0.0259399,0.108032
91,4,0.0280762,0.0137329,-0.00579834,0.0238037,-0.00274658,0.0646973,0.0244141,0.0244141,0.0445557,0.0366211,-0.0369263,0.0146484,0.0805664
92,0,0.0088501,0.0167847,-0.0259399,0.0131226,0.0186157,-0.0479126,0.0421143,0.0302124,-0.0326538,0.0241089,-0.0305176,0.017395,0.0753784
92,1,0.0320435,0.0241089,0.00732422,0.0134277,0.00640869,0.0521851,0.057373,0.0180054,0.0979614,0.0177002,-0.0244141,0.065918,0.0906372
92,2,0.027771,0.0271606,0.00305176,0.0161743,-0.0280762,0.00671387,0.0442505,0.00732422,0.0512695,0.0238037,-0.0390625,0.0338745,0.0891113
92,3,0.0180054,0.0384521,0.0219727,0.00335693,0.0167847,0.0161743,0.00488281,-0.00213623,0.0317383,0.0320435,-0.020752,0.0241089,0.0820923
92,4,0.0244141,0.0549316,0.0247192,0.0247192,0.00549316,0.0231934,0.0473022,0.0146484,0.0341797,0.0241089,-0.032959,0.0134277,0.0735474
93,0,-0.0192261,0.0186157,0.0198364,-0.0158691,0.0177002,0.0302124,-0.00244141,0.00488281,0.0210571,-0.020752,-0.0683594,0.0314331,0.0393677
93,1,0.0674438,0.0314331,0.0186157,-0.03479,0.0106812,0.0140381,0.0311279,0.0195312,0.0219727,0.0302124,-0.0350952,0.0177002,0.0735474
93,2,0.0613403,0.0326538,0.00518799,0.0552368,0.0283813,0.0244141,0.00976562,-0.0109863,0.0128174,0.0204468,-0.03479,0.0305176,0.0915527
93,3,0.0778198,0.0268555,0.0280762,0.0274658,0.00152588,0.0302124,0.0164795,-0.00518799,0.0219727,0.038147,-0.0378418,0.0274658,0.0714111
93,4,0.0305176,-0.0201416,0.0177002,0.0259399,0.022583,0.0314331,0.0167847,0.0164795,0.0256348,0.0283813,-0.0350952,0.0234985,0.0811768
94,0,0.0256348,0.0128174,0.00793457,-0.00427246,0.00671387,0.0204468,0.0341797,0.0180054,0.0384521,-0.0167847,-0.0296021,0.0231934,0.0317383
94,1,0.0466919,0.0372314,0.0146484,0.0195312,0.0106812,0.0170898,0.0216675,0.0268555,0.0299072,0.0396729,-0.032959,-0.0158691,0.0643921
94,2,0.0192261,0.0265503,0.0585938,0.020752,0.00976562,0.0137329,0.0323486,0.0805664,0.0317383,0.0320435,-0.0308228,0.0268555,0.0549316
94,3,0.038147,0.0241089,0.0198364,0.0332642,0.0088501,0.0131226,-0.012207,0.0753784,0.0231934,0.0244141,-0.0228882,0.00488281,0.0448608
94,4,0.0372314,0.0259399,0.00579834,-0.00244141,0.00640869,0.0204468,0.0161743,0.0531006,0.0390625,0.0115967,-0.0250244,0.0195312,0.101318
95,0,0.0296021,0.0238037,0.0299072,0.0183105,0.0241089,0.00946045,0.0149536,0.0759888,0.0192261,0.0570679,-0.0216675,0.0280762,0.0430298
95,1,0.0439453,0.0100708,0.010376,0.0378418,0.0137329,0.017395,0.00457764,0.0564575,0.0012207,0.0170898,-0.0210571,0.0152588,0.0387573
95,2,0.0317383,0.0183105,0.0280762,0.0234985,0.0326538,0.00518799,0.00396729,0.0436401,0.0253296,0.0268555,-0.0317383,0.043335,0.0308228
95,3,0.0628662,0.0378418,0.0183105,0.015564,0.00579834,0.0219727,0.00976562,0.0540161,0.0357056,0.0228882,-0.0720215,0.0186157,0.0161743
95,4,0.0415039,-0.0164795,0.0241089,0.0177002,0.017395,0.0247192,-0.00915527,0.0488281,0.00946045,0.0244141,-0.0137329,0.0369263,0.0112915
96,0,0.0320435,0.0152588,0.0289917,0.0167847,0.00305176,-0.0012207,-0.0137329,0.0274658,0.0402832,0.0296021,-0.038147,-0.0241089,0.0665283
96,1,0.0308228,-0.0283813,0.0280762,0.0241089,0.0109863,0.0140381,0.000610352,0.027771,0.0442505,0.0119019,-0.0323486,0.0131226,0.057373
96,2,0.0228882,0.0744629,0.0256348,0.0283813,0.083313,0.0259399,0.0296021,0.0866699,0.0192261,0.0286865,-0.0378418,0.0238037,0.0524902
96,3,0.0820923,0.0274658,0.039978,0.0338745,0.00488281,0.0274658,0.0189209,0.032959,0.0210571,0.0250244,-0.0296021,0.0344849,0.0805664
96,4,0.0543213,0.0396729,0.0540161,0.0167847,0.0259399,0.0271606,0.0253296,0.0378418,0.0341797,0.0274658,-0.0299072,0.0369263,0.0500488
97,0,0.0274658,0.0268555,0.0186157,0.0283813,0.0167847,0.00946045,0.0335693,0.0274658,0.0189209,0.0201416,-0.0125122,0.0350952,0.0534058
97,1,0.0198364,0.0369263,-0.0238037,-0.00427246,0.000610352,-0.0323486,0.0271606,0.0250244,0.010376,0.0299072,-0.0415039,0.0637817,0.0158691
97,2,0.0268555,0.0308228,0.022583,0.00946045,0.0216675,0.00640869,0.0204468,0.0253296,0.0424194,0.0497437,-0.03479,0.00732422,-0.00488281
97,3,0.0402832,0.0296021,0.0283813,0.0256348,0.00640869,0.0219727,0.0357056,0.00335693,0.0234985,0.0421143,-0.0210571,0.0305176,0.0524902
97,4,0.0372314,0.0222778,0.0271606,0.00610352,0.00946045,0.00549316,0.00854492,0.0222778,0.0360107,-0.039978,-0.0421143,0.0387573,0.050354
98,0,0.0933838,0.012207,0.0308228,0.0802612,0.0238037,0.0100708,-0.0439453,0.027771,0.0183105,0.0656128,0.00152588,0.00518799,0.078125
98,1,0.0466919,0.0323486,0.0628662,0.0231934,0.00854492,0.0344849,0.0177002,-0.00793457,0.0238037,0.0384521,-0.0332642,0.039978,0.0482178
98,2,0.0308228,0.0271606,0.0308228,0.0216675,-0.00976562,0.0305176,0.0250244,-0.0320435,0.0286865,0.0393677,-0.0488281,0.0296021,0.015564
98,3,0.0332642,0.0372314,0.0210571,0.017395,0.00762939,0.0213623,0.00671387,0.0131226,0.0378418,0.0320435,-0.0265503,-0.00854492,0.0216675
98,4,0.0262451,0.0189209,0.0253296,0.0180054,0.00213623,0.017395,-0.000915527,-0.00183105,0.0268555,0.0268555,-0.0274658,0.0244141,0.0183105
99,0,0.0363159,0.0210571,-0.00579834,0.0204468,0.0195312,0.0735474,-0.00274658,0.00976562,-0.0143433,0.0265503,-0.0280762,0.0695801,0.0201416
99,1,0.0390625,0.0317383,0.0701904,0.00549316,-0.0012207,0.0109863,-0.000915527,0.0262451,0.0430298,0.0161743,-0.0311279,0.0253296,0.0354004
99,2,0.0354004,0.0216675,0.0128174,-0.0515747,0.0210571,0.017395,0.0247192,0.00976562,0.0332642,0.0292969,-0.0335693,0.0231934,0.0271606
99,3,0.0335693,0.0393677,0.032959,-0.00335693,0.0088501,-0.00305176,0.0274658,-0.0192261,0.0363159,0.0369263,-0.0350952,0.0341797,0.0216675
99,4,0.03479,0.0134277,0.0192261,0.022583,0.0265503,0.00366211,0.0292969,0.00762939,0.00976562,0.0299072,-0.0427246,0.0292969,0.0289917
100,0,0.0439453,0.00701904,0.0231934,0.0180054,-0.000610352,0.00396729,0.017395,0.0790405,0.0238037,0.027771,-0.0762939,0.0424194,0.0283813
100,1,0.0354004,0.0805664,0.0247192,0.0247192,-0.045166,0.0125122,0.0149536,0.0195312,0.00274658,0.0302124,-0.0302124,0.0280762,0.0152588
100,2,0.0357056,0.0415039,0.0161743,0.0280762,-0.00671387,-0.00579834,0.0170898,0.00915527,0.0250244,0.0256348,-0.0201416,0.0164795,0.0256348
100,3,0.0259399,0.0436401,0.0222778,-0.0292969,0.0228882,0.00518799,-0.00335693,0.0183105,0.00518799,0.0274658,-0.043335,0.0247192,0.0680542
100,4,0.0302124,0.0323486,0.0271606,0.0115967,0.0250244,0.0134277,0.0238037,0.00915527,0.0177002,0.0924683,-0.0360107,0.022583,0.015564
101,0,0.0396729,0.0222778,0.00640869,0.0311279,0.0265503,-0.00976562,0.0323486,0.0192261,0.0201416,0.0421143,-0.0317383,0.0292969,0.0323486
101,1,0.0289917,0.0256348,0.0299072,0.085144,0.0186157,0.0088501,0.0161743,-0.0140381,0.0125122,0.0228882,-0.017395,0.0411987,0.0274658
101,2,0.0320435,-0.00671387,0.0289917,0.032959,-0.0247192,0.00732422,0.0137329,0.0506592,0.0143433,0.0256348,-0.0314331,0.0308228,0.0299072
101,3,0.0387573,0.0323486,0.0357056,0.00549316,0.0140381,-0.0012207,0.015564,0.0100708,0.0680542,0.0119019,-0.0393677,0.0335693,0.0363159
101,4,0.0317383,0.0393677,0.0256348,0.0228882,0.0253296,0.0183105,0.0201416,0.0115967,0.00549316,-0.050354,-0.0369263,0.0180054,0.0299072
102,0,0.0466919,0.0296021,0.0787354,0.00244141,0.0149536,0.00854492,0.00976562,0.00732422,0.0186157,0.017395,-0.0296021,0.0241089,0.0402832
102,1,0.0286865,0.0317383,-0.000610352,0.000610352,0.0177002,-0.0357056,0.00854492,0.020752,-0.00762939,0.0250244,-0.022583,0.0100708,0.039978
102,2,0.0292969,0.0341797,0.0338745,0.0259399,0.0109863,0.017395,0.03479,0.0100708,0.00762939,0.0268555,-0.0262451,0.027771,0.0302124
102,3,0.0765991,0.0305176,0.0222778,0.0259399,0.0161743,0.00610352,0.00671387,0.0280762,0.0244141,0.0259399,-0.0213623,0.0247192,0.00946045
102,4,0.0302124,-0.0427246,0.0210571,0.0369263,0.06073,0.00457764,0.0161743,0.0213623,0.00823975,0.0268555,-0.0128174,0.0247192,0.00732422
103,0,0.0378418,0.010376,0.0216675,-0.00244141,0.0128174,0.0170898,0.0186157,0.00976562,0.020752,0.0375366,-0.0192261,0.0314331,-0.0131226
103,1,0.0247192,0.0668335,0.0344849,0.0195312,0.0216675,0.0292969,0.0186157,0.0180054,0.0238037,0.0241089,-0.0274658,0.0354004,0.0244141
103,2,0.0146484,0.00946045,0.015564,0.0244141,0.0170898,0.022583,0.0109863,0.0234985,-0.043335,0.0283813,-0.0210571,0.0299072,0.0341797
103,3,0.0405884,0.0271606,0.0335693,0.00671387,0.0259399,0.0140381,0.0158691,0.00610352,0.0088501,0.0735474,-0.0454712,0.0302124,-0.0250244
103,4,0.0393677,0.0292969,0.0137329,-0.0158691,0.0201416,-0.0271606,0.0790405,0.00854492,0.0177002,-0.0338745,-0.0283813,0.0408936,0.0765991
104,0,0.0335693,0.0268555,0.0393677,0.0112915,0.00213623,0.0228882,0.017395,-0.00671387,-0.012207,0.0244141,-0.0231934,0.0372314,0.0341797
104,1,0.0933838,0.0250244,0.0302124,-0.0241089,0.0332642,-0.00213623,0.0396729,0.0292969,0.00976562,0.0216675,-0.0247192,0.0384521,0.0341797
104,2,0.0234985,0.0283813,0.0308228,0.0296021,0.0305176,0.00549316,0.0231934,-0.00610352,-0.015564,0.0219727,0.00213623,0.0146484,0.0219727
104,3,0.0204468,0.0149536,0.0512695,0.0286865,0.015564,0.020752,-0.00610352,0.00457764,0.00610352,0.0222778,-0.0149536,0.0137329,-0.00274658
104,4,0.0280762,0.0335693,0.065918,0.015564,0.0228882,-0.000610352,0.0167847,0.0143433,-0.0396729,0.0216675,-0.0228882,0.0564575,0.0219727
105,0,0.012207,0.0476074,0.0823975,0.0247192,0.0308228,-0.00579834,0.0146484,0.00213623,0.0161743,0.012207,-0.027771,0.000305176,0.0134277
105,1,0.022583,0.0250244,0.0283813,0.0183105,0.0350952,0.022583,0.0112915,0.0149536,-0.0488281,0.0161743,-0.0292969,0.0332642,0.0183105
105,2,0.0137329,0.038147,0.0326538,0.0274658,0.0384521,0.00549316,0.0228882,-0.00549316,0.0262451,0.00854492,-0.0350952,0.0271606,0.0311279
105,3,0.0634766,0.0585938,0.0283813,-0.00915527,0.0354004,0.0167847,-0.0241089,0.00976562,0.0192261,0.038147,-0.050354,0.00915527,0.0482178
105,4,0.0137329,0.0704956,0.0354004,0.0119019,0.0354004,-0.00244141,-0.00244141,0.0219727,0.00915527,0.0195312,-0.0189209,0.0228882,0.0149536
106,0,0.0149536,0.0280762,-0.00274658,0.0201416,0.020752,0.0152588,-0.000610352,0.00762939,0.00335693,0.0219727,-0.0195312,0.0244141,0.050354
106,1,0.0238037,0.0180054,0.0369263,0.0341797,0.0436401,0.0167847,0.0146484,0.0250244,0.0247192,0.00274658,-0.0268555,0.0738525,0.0274658
106,2,0.0320435,-0.0146484,0.0280762,0.0143433,0.0442505,0.0274658,0.0238037,0.0427246,0.015564,0.0344849,-0.0323486,0.0402832,0.0231934
106,3,0.0311279,0.00946045,0.00610352,0.0323486,0.0234985,0.0231934,0.0192261,0.0189209,0.017395,0.0234985,-0.0247192,0.0268555,0.0234985
106,4,0.0338745,0.0305176,0.0308228,0.0170898,0.0311279,0.0183105,0.0131226,0.00274658,0.0216675,0.0250244,-0.0170898,0.0164795,0.0259399
107,0,0.0354004,0.0280762,0.0320435,0.0256348,0.0244141,0.0299072,0.0332642,0.0244141,0.0253296,0.022583,-0.0488281,0.0247192,0.0308228
107,1,0.0161743,0.015564,0.0323486,0.0241089,0.0238037,-0.0238037,0.0177002,0.0585938,0.000305176,0.0228882,-0.0250244,0.105591,0.022583
107,2,0.0180054,0.00793457,0.0338745,0.0158691,0.0106812,0.0088501,0.0268555,0.0299072,0.0137329,0.0311279,-0.0384521,0.0262451,0.017395
107,3,0.0357056,0.0149536,0.0421143,0.0131226,0.0592041,0.0219727,0.0473022,0.022583,0.0186157,0.0454712,-0.0296021,0.0372314,0.032959
107,4,0.0247192,0.0299072,0.0552368,0.043335,0.0177002,0.0216675,0.017395,0.0198364,0.0213623,0.0222778,-0.0146484,0.0161743,0.0543213
108,0,0.0332642,0.0274658,0.0744629,0.017395,0.00671387,-0.0320435,0.0180054,0.00244141,0.0405884,0.0210571,-0.0219727,0.0366211,0.0460815
108,1,0.0317383,0.0299072,0.0183105,0.0405884,0.0115967,0.0247192,0.0363159,0.022583,0.0268555,0.00732422,-0.0259399,0.0332642,0.00579834
108,2,0.0262451,0.00579834,0.0286865,0.00671387,0.0186157,0.0256348,0.0527954,0.00244141,0.0216675,0.0717163,-0.0167847,0.0186157,-0.00549316
108,3,-0.0524902,0.0418091,0.0234985,0.0210571,0.0222778,-0.00213623,0.0372314,-0.0158691,0.0289917,0.0177002,-0.00915527,0.0360107,0.0125122
108,4,0.0213623,0.0369263,0.10376,0.0305176,0.0228882,0.0717163,0.0531006,0.00366211,0.0686646,0.0219727,-0.0238037,0.0262451,-0.0109863
109,0,0.0216675,0.00854492,0.0134277,0.0296021,-0.0448608,0.0149536,0.0439453,-0.0231934,0.000610352,0.0167847,-0.0213623,0.0192261,0.00152588
109,1,0.0137329,0.0411987,0.00793457,0.0302124,0.0274658,0.0402832,0.0442505,0.00549316,0.0152588,0.0112915,-0.0222778,0.0189209,0.0244141
109,2,0.0296021,0.0665283,0.0540161,0.0280762,0.0286865,0.0335693,0.0375366,0.0143433,0.0143433,0.010376,-0.0256348,0.0204468,0.0497437
109,3,0.0177002,0.0189209,0.0469971,0.0317383,0.0384521,0.0201416,0.038147,0.00274658,0.0177002,0.00457764,-0.015564,-0.0112915,0.0274658
109,4,0.0454712,0.0332642,0.0958252,0.0357056,0.0341797,0.0753784,0.0186157,0.0326538,0.0338745,0.0183105,-0.0326538,0.0265503,0.0216675
110,0,0.0198364,0.0128174,0.0363159,0.0469971,0.0302124,0.0198364,0.0143433,0.0344849,0.0238037,-0.00305176,-0.00915527,0.0259399,-0.0350952
110,1,0.0296021,0.0106812,0.0338745,0.0302124,0.0280762,0.0296021,-0.0146484,0.0332642,0.0506592,0.0177002,-0.027771,0.0262451,0.00152588
110,2,-0.00335693,0.0442505,0.0140381,0.0314331,0.0299072,0.0369263,-0.0280762,0.0790405,0.0167847,0.017395,-0.0180054,0.0338745,0.00427246
110,3,0.0125122,0.0241089,0.0317383,0.0204468,0.0256348,-0.00518799,-0.0189209,0.0436401,0.0198364,0.0265503,-0.0579834,0.032959,0.0335693
110,4,0.0375366,0.0164795,0.0323486,0,0.0140381,0.0280762,-0.0378418,0.0354004,0.0170898,-0.0292969,-0.0234985,0.0372314,0.0140381
111,0,0.0100708,0.0238037,0.0366211,0.00793457,0.0274658,0.032959,0.0189209,0.0283813,0.0241089,0.0350952,-0.0186157,0.0296021,0.0088501
111,1,0.0115967,0.0262451,0.0323486,0.0213623,0.0228882,0.0189209,-0.0354004,0.0286865,0.0106812,0.0216675,-0.0283813,0.0302124,0.00427246
111,2,0.0198364,0.0320435,0.0317383,0.0375366,0.10376,0.0421143,0.0152588,0.0650024,0.015564,0.0192261,-0.0228882,0.0335693,0.00366211
111,3,0.0219727,0.015564,0.0280762,0.0558472,0.0250244,0.0241089,0.0296021,0.0149536,0.0180054,0.012207,-0.0131226,0.0344849,0.0198364
111,4,0.0234985,0.0289917,0.0256348,0.0396729,0.0219727,0.0183105,0.0119019,0.0817871,0.0125122,0.00244141,-0.043335,0.038147,0.020752
112,0,0.0354004,0.0241089,0.0311279,0.0323486,0.00305176,0.0216675,0.0238037,0.0549316,0.0332642,0.0152588,-0.0161743,-0.0244141,0.00335693
112,1,0.0286865,0.0512695,0.0280762,0.0378418,0.0320435,0.0161743,0.0253296,0.0396729,0.00915527,0.0177002,-0.0256348,0.0357056,0.0274658
112,2,0.0320435,0.0424194,0.0250244,0.0335693,0.015564,0.0302124,0.00610352,0.0146484,0.00518799,-0.0146484,-0.0213623,0.0323486,-0.0268555
112,3,0.00946045,0.0250244,0.0732422,0.0317383,0.0363159,0.0283813,0.0299072,0.0268555,0.0244141,0.0140381,-0.0326538,0.0283813,0.0128174
112,4,0.00915527,0.0134277,0.0274658,0.0402832,0.0198364,0.0357056,-0.0100708,0.00946045,0.00549316,0.00823975,-0.0177002,0.0271606,0.0149536
113,0,0.010376,0.0177002,0.0305176,0.0250244,0.0259399,0.0164795,0.0238037,0.00579834,0.0180054,0.00274658,-0.0274658,0.0109863,0.0186157
113,1,-0.0436401,0.0247192,0.0341797,-0.0234985,0.0183105,0.0183105,0.00579834,0.00549316,-0.00396729,0.0561523,-0.00549316,0.0231934,0.0244141
113,2,0.0323486,0.0280762,0.0274658,0.0253296,0.0405884,0.0332642,0.0363159,0.0540161,0.0106812,0.0262451,-0.0186157,0.03479,0.027771
113,3,0.0198364,0.0119019,0.0338745,0.0259399,0.043335,0.0323486,0.0265503,0.0512695,0.00152588,0.00549316,0.0241089,0.0378418,-0.00579834
113,4,0.022583,0.0180054,0.0280762,0.0317383,-0.0100708,0.0314331,0.0286865,-0.0402832,0.0161743,0.00976562,-0.015564,0.0234985,0.00274658
114,0,0.022583,0.0787354,0.0201416,0.0296021,0.0622559,0.0335693,0.032959,0.0683594,0.0244141,0.00854492,-0.0210571,0.0210571,0.0344849
114,1,0.0323486,0.0253296,0.0253296,0.0247192,0.0369263,0.0363159,0.0183105,0.00518799,0.0137329,0.0567627,-0.0234985,0.0393677,0.0570679
114,2,0.0012207,0.0393677,0.0192261,0.0405884,0.0317383,0.0244141,0.038147,0.0201416,0.00823975,0.0262451,-0.0262451,0.0592041,0.020752
114,3,0.0598145,0.0195312,0.0250244,0.0326538,0.0262451,0.0421143,0.0289917,0.0274658,0.00549316,0.00579834,-0.0134277,0.0228882,0.0259399
114,4,0.0305176,0.0537109,0.0558472,0.0253296,0.0439453,0.0753784,0.0250244,0.0186157,0.0488281,0.0128174,-0.0167847,0.0222778,0.0241089
115,0,0.0262451,0.0256348,0.0244141,0.00671387,0.03479,0.0488281,0.0402832,0.0204468,0.0100708,0.0234985,-0.0283813,0.0244141,0.0195312
115,1,0.0158691,0.00854492,-0.0128174,0.03479,0.0265503,0.0476074,0.022583,0.00213623,-0.00213623,0.0137329,-0.0143433,0.0308228,-0.0164795
115,2,0.0234985,0.0231934,-0.0326538,0.0299072,0.022583,0.0338745,0.0115967,0.0234985,0.0115967,0.00518799,-0.0167847,0.0241089,0.022583
115,3,0.078125,0.0241089,0.0250244,0.00518799,0.0299072,0.0387573,-0.0195312,0.0186157,0.00518799,-0.0393677,-0.0506592,0.00915527,-0.0350952
115,4,0.0234985,0.022583,0.015564,0.0283813,0.0326538,0.0183105,0.0238037,0.027771,0.0396729,0.0115967,-0.0228882,0.0720215,0.00762939
116,0,0.0402832,0.0332642,0.0299072,-0.0274658,0.0424194,0.0378418,0.0192261,0.0109863,-0.000915527,0.0100708,-0.00854492,0.0332642,0.0100708
116,1,0.0341797,0.0268555,0.0195312,0.0314331,0.0515747,0.027771,0.0125122,0.0186157,0.012207,0.0210571,-0.0231934,0.0408936,0.00610352
116,2,0.0219727,0.0265503,0.0360107,0.0247192,0.032959,0.039978,0.0341797,0.0143433,0.00488281,0.0326538,-0.0241089,0.0384521,0.0216675
116,3,0.0128174,0.0161743,0.0344849,0.022583,0.00671387,0.0393677,0.0244141,-0.00366211,-0.0360107,0.0219727,-0.00396729,0.0683594,0.0210571
116,4,0.00213623,0.0289917,0.0161743,0.0259399,0.0213623,0.0234985,0.0534058,0.0231934,0.0320435,0.0170898,-0.0134277,0.0286865,0.000915527
117,0,0.0234985,0.0192261,0.0485229,0.0305176,0.0323486,0.0292969,0.0241089,0.0137329,0.000610352,0.020752,-0.0158691,0.0195312,0.0604248
117,1,0.00915527,0.0106812,0.0210571,0.0140381,0.015564,0.0390625,0.032959,0.0112915,0.0115967,0.0183105,-0.0604248,0.0244141,0.00335693
117,2,0.00854492,0.0152588,-0.0378418,0.0149536,0.0274658,-0.00305176,0.0341797,0.0265503,0.0588989,0.0531006,-0.0189209,0.000610352,0.00946045
117,3,0.0280762,0.027771,0.0183105,0.0769043,0.00457764,0.0296021,0.0292969,0.0283813,0.0201416,0.00671387,-0.0228882,0.00305176,0.0186157
117,4,0.0372314,0.0134277,0.0158691,0.0360107,0.0186157,0.0253296,0.022583,0.0262451,0.0158691,0.0164795,-0.0149536,0.0204468,0.0305176
118,0,0.00762939,0.0228882,0.0244141,-0.0247192,0.0289917,0.0198364,0.032959,0.0234985,0.0170898,0.00427246,-0.0177002,0.00915527,0.0128174
118,1,0.0146484,0.0256348,0.0228882,0.0653076,0.0384521,0.0424194,0.0579834,0.0161743,-0.00823975,0.0350952,-0.0140381,0.0167847,0.0646973
118,2,0.0106812,0.0283813,-0.00579834,0.0369263,0.0177002,0.0415039,0.050354,0.00640869,0.0088501,0.010376,-0.0158691,0.0170898,0.0247192
118,3,0.00915527,-0.0134277,0.0305176,0.0411987,0.0247192,0.0360107,0.0384521,0.012207,0.00946045,0.0396729,-0.00427246,0.0326538,0.0149536
118,4,0.000610352,0.0119019,0.0177002,0.0427246,0.0274658,0.0357056,0.0338745,0.0152588,0.00488281,0.0308228,-0.0305176,0.00518799,-0.017395
119,0,0.00732422,-0.0286865,0.0271606,0.0152588,-0.027771,0.0109863,0.0289917,-0.0384521,0.00518799,0.0323486,-0.0213623,0.0146484,0.0265503
119,1,0.00976562,0.0271606,0.00915527,0.0317383,0.0369263,0.0296021,0.0210571,0.0262451,0.0350952,0.0317383,-0.0183105,0.0350952,0.032959
119,2,0.0274658,0.0360107,0.0192261,0.0265503,0.00671387,0.00274658,0.0216675,0.0140381,-0.0115967,0.0238037,-0.0231934,0.0128174,0.0308228
119,3,0.0198364,0.0119019,0.0213623,0.0146484,0.0341797,0.0442505,0.0180054,0.0158691,0.00732422,0.0311279,-0.0244141,0.0665283,0.00488281
119,4,0.0112915,0.00396729,-0.0354004,0.0289917,0.020752,-0.0210571,0.038147,0.0265503,0.0683594,0.0213623,-0.017395,0.0421143,0.00549316
120,0,0.0149536,0.085144,0.0198364,0.0247192,0.0845337,0.0222778,0.0308228,0.0540161,0.0259399,0.0222778,-0.0164795,0.0170898,0.00946045
120,1,0.0219727,0.0234985,0.0140381,0.0146484,0.0314331,0.0296021,0.0106812,0.0418091,0.0189209,-0.0125122,-0.00976562,0.0234985,-0.017395
120,2,0.00183105,0.0210571,0.0247192,0.0280762,0.0341797,0.0271606,0.0338745,0.0378418,0.0143433,0.0183105,-0.0115967,0.0177002,-0.0170898
120,3,0.0253296,-0.00640869,0.0119019,0.0231934,0.0375366,0.0296021,0.0189209,0.0384521,0.0256348,0.0341797,-0.0201416,0.0158691,0.00732422
120,4,0.0222778,0.00335693,0.0109863,0.032959,0.0546265,0.0317383,0.0219727,0.0723267,0.0271606,0.0204468,-0.0149536,0.00732422,0.0369263
121,0,0.0152588,0.0280762,0.0427246,0.0250244,-0.0012207,0.0415039,0.0390625,0.050354,0.0323486,0.0299072,-0.0283813,-0.00366211,0.0109863
121,1,0.00640869,0.00610352,0.012207,0.00946045,0.0125122,0.0750732,0.0271606,0.0283813,-0.0286865,0.0387573,-0.0177002,0.022583,0.0112915
121,2,0.0265503,0.00793457,0.0314331,0.0512695,0.0311279,0.0253296,-0.00335693,0.0161743,0.0201416,0.0152588,-0.0274658,0.012207,-0.00976562
121,3,0.012207,0.0149536,0.0360107,0.0274658,0.0457764,0.0448608,0.0317383,0.0360107,0.015564,0.0115967,-0.0241089,-0.00946045,0.0338745
121,4,0.0149536,0.00732422,-0.00152588,0.0357056,0.0186157,0.0274658,0.0244141,0.0280762,0.0186157,0.00244141,-0.0137329,0.0180054,0.0115967
122,0,0.0140381,0.0106812,0.0112915,0.0140381,0.0286865,0.0354004,0.0671387,0.00305176,0.0320435,0.027771,-0.0125122,0.022583,0.0115967
122,1,0.0158691,0.0247192,0.0311279,0.0317383,0.0314331,0.0222778,0.0198364,0.00396729,0.0204468,-0.0189209,-0.0115967,0.0100708,0.00213623
122,2,0.0131226,0.0112915,0,0.0238037,0.00976562,0.0616455,0.0106812,0.0164795,0.0982666,0.00701904,-0.0204468,0.072937,0.0189209
122,3,0.0396729,0.0137329,0.0244141,0.010376,0.0262451,0.0338745,0.0125122,0.0268555,0.0125122,0.00457764,-0.020752,-0.00213623,0.0128174
122,4,0.0210571,0.00701904,0.015564,0.0109863,0.032959,0.017395,0.0323486,0.057373,0.0128174,0.0100708,-0.0485229,0.0250244,0.0292969
123,0,0.0296021,0.00488281,0.0311279,0.0186157,0.0143433,-0.0195312,0.0228882,0.0149536,0.0402832,0.0195312,-0.0216675,0.0350952,0.0241089
123,1,-0.00549316,-0.00488281,0.0244141,-0.000305176,0.0170898,0.0253296,0.0506592,0.0210571,0.0259399,0.0250244,-0.0543213,0.00671387,-0.0292969
123,2,0.0115967,0.0289917,0.0228882,0.0253296,0.0305176,0.0305176,0.0454712,0.00305176,0.0283813,0.00518799,-0.017395,0.0195312,-0.0180054
123,3,0.0149536,-0.0366211,0.0280762,0.0250244,0.0268555,0.012207,0.0408936,0.0204468,0.0302124,0.00732422,-0.0109863,-0.0292969,-0.00488281
123,4,0.00366211,-0.0134277,0.0198364,0.00518799,0.0799561,0.0250244,0.043335,0.0210571,0.0231934,0.022583,-0.0088501,0.0137329,-0.00823975
124,0,0.0161743,0.0280762,0.020752,0.0216675,0.071106,0.0247192,0.0326538,0.0119019,0.00823975,0.0100708,-0.0231934,0.00488281,0.0131226
124,1,0.0305176,0.0177002,0.0228882,0.0259399,0.0296021,0.0317383,0.0421143,0.0137329,0.0213623,0.0128174,0.022583,0.0137329,0.0234985
124,2,0.0115967,0.015564,-0.00488281,0.0271606,0.0244141,0.0247192,0.0500488,0.00976562,0.0216675,0.00488281,-0.0286865,0.00244141,0.039978
124,3,0.0228882,0.0265503,0.0302124,0.0140381,0.0271606,0.0350952,-0.000915527,0.00854492,0.0146484,0.0415039,-0.00915527,0.0161743,0.0195312
124,4,0.0241089,0.0241089,0.0378418,0.0189209,0.017395,0.0164795,0.0579834,0.0170898,0.0512695,0.0152588,-0.0265503,0.00976562,0.0088501
125,0,0.0131226,0.0213623,0.0216675,0.0180054,0.0283813,0.0332642,0.043335,0.0341797,0.0161743,0.0271606,-0.0469971,0.012207,0.000915527
125,1,0.0427246,0.0137329,0.0128174,0.0146484,0.0134277,0.0320435,0.0509644,0.0119019,0.0201416,0.00610352,-0.0140381,0.0183105,0.00793457
125,2,0.0146484,0.00762939,0.0247192,0.0213623,0.0231934,0.0262451,0.0250244,0.0183105,0.00732422,0.0222778,-0.0137329,0.012207,-0.00732422
125,3,0.0140381,0.0149536,0.0323486,0.0115967,0.0195312,0.0442505,0.012207,0.03479,-0.00152588,0.0131226,-0.0247192,0.0534058,0.00793457
125,4,0.0177002,0.010376,0.0164795,0.0341797,0.0112915,0.0274658,0.00549316,0.0302124,0.0125122,0.00976562,-0.0500488,0.00549316,0.022583
126,0,0.00946045,0.0106812,0.00732422,0.0195312,0.0177002,0.0222778,-0.0106812,0.0671387,0.0253296,-0.00366211,-0.00335693,-0.00701904,0.00152588
126,1,0.0140381,0.017395,0.00549316,0.0314331,0.0283813,0.0344849,-0.0106812,0.0552368,0.0204468,0.0543213,-0.015564,0.0140381,-0.0421143
126,2,0.0280762,0.00823975,0.0195312,0.00274658,0.0292969,0.03479,0.0128174,0.0311279,0.00488281,0.00305176,-0.0146484,-0.0241089,0.00335693
126,3,0.00793457,0.0732422,0.0305176,0.0231934,0.0683594,0.0180054,0.00518799,-0.00305176,0.0210571,0.0106812,-0.0149536,0.00396729,0.0100708
126,4,0.00854492,-0.00488281,0.00183105,0.0280762,-0.0213623,0.0265503,0.017395,0.0332642,0.0183105,0.00640869,-0.020752,0.0262451,0.00518799
127,0,0.0241089,0.0167847,0.0201416,0.0454712,0.0259399,0.0332642,0.0186157,0.027771,0.0128174,-0.000915527,-0.0210571,0.012207,-0.00518799
127,1,0.0274658,0.0369263,0.0192261,0.0253296,0.0646973,0.0311279,0.0366211,0.0317383,0.00701904,-0.00762939,-0.0201416,0.0201416,-0.027771
127,2,0.00671387,0.0012207,0.0189209,0.0247192,0.0262451,-0.0323486,0.0314331,0.0463867,0.0338745,0.00793457,-0.0286865,0.0863647,0.00457764
127,3,-0.000915527,0.0177002,0.0234985,0.0537109,0.0183105,0.0289917,0.0588989,0.0546265,0.0204468,0.00610352,-0.0164795,0.0119019,-0.00366211
127,4,0.0259399,0.0128174,0.0164795,0.0228882,-0.0250244,0.0241089,0.0430298,0.0531006,0.0204468,0.00579834,-0.0500488,0.0222778,0.00793457
128,0,0.0219727,0.010376,0.0216675,0.00976562,0.0405884,0.00396729,0.038147,0.0540161,0.0436401,0.00244141,-0.0427246,-0.000915527,-0.012207
128,1,0.0289917,-0.0115967,0.0296021,-0.00396729,-0.00976562,0.0204468,-0.0134277,0.050354,0.0231934,-0.0369263,-0.00823975,0.00305176,-0.045166
128,2,0.0259399,0.0164795,0.0140381,-0.000610352,0.0274658,0.0344849,0.0494385,0.0466919,0.0271606,0.00640869,-0.0161743,0.00915527,0.017395
128,3,0.015564,0.0128174,0.0192261,0.0109863,0.0180054,0.0201416,0.0350952,0.032959,0.0540161,-0.00549316,-0.0228882,0.0283813,0.0177002
128,4,0.0158691,0.0177002,0.0643921,0.0152588,0.027771,0.0265503,0.0439453,0.0424194,0.0186157,0.0134277,-0.0177002,0.00427246,0.0222778
129,0,0.0180054,0.0283813,0.0125122,0.0354004,0.0357056,0.0140381,0.0344849,0.0411987,0.0247192,0.0131226,-0.0128174,0.0170898,-0.00213623
129,1,0.027771,0.012207,0.00701904,0.0167847,0.0326538,0.0115967,0.0384521,0.0222778,0.0396729,0.0238037,-0.0244141,0.00274658,-0.0146484
129,2,0.00244141,0.0259399,0.0219727,-0.00305176,0.0140381,0.0177002,0.0338745,0.0369263,0.0143433,0.0222778,-0.0222778,0.00518799,-0.0115967
129,3,0.0158691,0.0253296,0.0250244,0.00854492,0.0299072,0.0283813,0.0564575,-0.0265503,0.0375366,0.0210571,-0.0579834,0.0140381,0.00457764
129,4,0.0125122,0.0390625,0.0265503,0.0128174,0.0112915,0.0390625,0.0430298,0.0695801,0.0238037,0.0234985,-0.0271606,0.00701904,0.0088501
130,0,0.0296021,0.012207,0.0335693,0.0158691,0.0286865,0.0134277,0.0457764,0.0152588,0.0286865,-0.000305176,-0.0219727,0.0189209,0.0289917
130,1,0.0241089,0.00518799,0.0299072,0.0128174,0.0186157,0.0164795,0.0415039,0.0228882,0.00671387,0.0186157,-0.0286865,-0.00976562,0.0210571
130,2,0.0161743,0.015564,0.0790405,0.0186157,0.0280762,0.0448608,0.0408936,0.0256348,0.0183105,0.0408936,-0.0274658,0.0195312,0.0161743
130,3,0.0100708,0.000610352,-0.00732422,0.0158691,0.0195312,0.0280762,0.0341797,0.0344849,0.03479,0.0326538,-0.0326538,0.012207,0.0131226
130,4,-0.0314331,0.0201416,0.000915527,0.0671387,0.015564,0.0305176,0.0228882,0.0549316,0.0311279,0.0402832,-0.0280762,0.00762939,-0.0363159
131,0,0.0350952,0.00549316,-0.0012207,0.0473022,0.015564,0.0234985,0.0259399,0.0421143,0.0109863,0.0579834,-0.0164795,0.00183105,-0.00366211
131,1,0.0198364,0.0219727,0.00305176,0.0405884,0.0430298,0.017395,0.00762939,0.0161743,0.0445557,0.0643921,-0.0192261,0.0286865,-0.0137329
131,2,0.0302124,0.0186157,0.0137329,0.0164795,0.0317383,0.0323486,0.0186157,0.0332642,0.0326538,0.0579834,0.0161743,0.00427246,-0.0012207
131,3,0.0140381,-0.0201416,-0.00549316,0.0170898,0.0149536,0.0534058,0.0213623,0.0326538,0.0387573,0.0634766,-0.0292969,0.0158691,0.0210571
131,4,0.027771,0.00213623,0.00946045,0.00946045,0.0344849,0.015564,0.0344849,0.0262451,0.0387573,0.0714111,-0.027771,0.0234985,0.000915527
132,0,0.0390625,0.00793457,0.0204468,0.0302124,0.032959,0.0177002,0.0219727,0.0634766,0.0363159,0.0769043,-0.0253296,0.0189209,0.00793457
132,1,0.0228882,0.0219727,0.00579834,0.0296021,0.0128174,0.00274658,0.0369263,0.0360107,0.0479126,0.113525,-0.0344849,0.0180054,0.0543213
132,2,0.0234985,0.0219727,0.00915527,0.0134277,0.015564,0.00640869,0.03479,0.0265503,0.0210571,0.0958252,-0.0341797,0.027771,0.0149536
132,3,0.0323486,0.0112915,0.027771,0.0354004,0.0161743,0.0177002,0.0088501,0.0393677,0.0643921,0.0811768,-0.0311279,0.00213623,0.00610352
132,4,0.0134277,0.00762939,0.00701904,0.0204468,0.0195312,0.0195312,0.0210571,0.0360107,0.0445557,0.0637817,-0.0326538,0.0250244,0.0125122
133,0,0.0323486,0.00549316,0.0198364,0.0195312,0.000915527,0.0219727,0.0271606,0.0405884,-0.0112915,0.0692749,-0.032959,-0.0256348,0.0296021
133,1,0.055542,0.00610352,0.0152588,-0.0219727,0.0314331,0.0216675,-0.0143433,0.0405884,0.0491333,0.112915,-0.0292969,0.020752,0.0802612
133,2,0.0262451,0.0198364,0.0149536,0.0115967,0.0143433,0.0186157,0.0222778,0.0152588,0.0338745,0.0830078,-0.0238037,0.0299072,0.0125122
133,3,0.0213623,0.00579834,0.00854492,0.0192261,0.0125122,0.012207,0.0274658,0.0219727,0.0393677,0.0384521,-0.0317383,0.0204468,0.0671387
133,4,0.0210571,0.0100708,0,0.0286865,0.0186157,0.0128174,0.0183105,0.038147,0.039978,0.0723267,-0.0335693,0.00823975,-0.00213623
134,0,-0.0286865,0.0198364,0.0204468,0.0402832,0.015564,0.0146484,0.0341797,0.017395,0.0296021,0.0741577,-0.0146484,0.00671387,-0.00793457
134,1,0.0424194,0.0149536,0.0308228,0.0189209,0.0234985,0.00152588,0.0292969,0.0195312,0.0344849,0.0646973,-0.0393677,0.0259399,0.0088501
134,2,0.0299072,0.0198364,-0.00305176,0.0112915,0.0827026,0.0271606,0.0262451,-0.00244141,0.0396729,0.0521851,-0.0231934,0.0296021,0.0463867
134,3,0.0238037,0.000915527,0.0140381,0.0299072,0.0195312,0.0302124,0.0296021,0.0354004,0.00274658,0.0631714,-0.00793457,0.0344849,0.00610352
134,4,0.0421143,0.00396729,0.017395,0.0759888,0.0234985,0.0192261,0.0326538,0.0241089,0.0323486,0.0637817,-0.0582886,0.022583,-0.00976562
135,0,0.0274658,0.0164795,0.00518799,0.00854492,0.0106812,-0.000915527,0.0405884,0.0292969,0.0576782,0.057373,-0.0320435,0.0338745,-0.00610352
135,1,0.0231934,0.0106812,0.00457764,0.015564,0.0164795,0.0238037,-0.0210571,0.0378418,0.0268555,-0.00640869,-0.0262451,0.0317383,0.012207
135,2,0.0167847,0.0109863,0.0177002,0.0488281,0.00762939,0.00946045,0.0415039,0.0247192,0.0299072,-0.000305176,-0.0265503,0.0369263,0.00274658
135,3,0.0390625,0.00335693,0.0115967,-0.0198364,0.00976562,0.0189209,0.012207,0.0448608,0.0286865,0.0549316,-0.0234985,0.0265503,0.00854492
135,4,0.0149536,0.015564,0.00366211,-0.0439453,0.0494385,0.010376,-0.0302124,0.0384521,0.0286865,-0.0308228,-0.00762939,0.0256348,0.000610352
136,0,0.0402832,0.0317383,0.0186157,0.0253296,0.0283813,-0.00152588,0.00701904,0.027771,0.0323486,0.0558472,-0.0265503,-0.032959,0.0204468
136,1,0.0106812,0.022583,0.00793457,0.0256348,0.0247192,-0.0088501,0.0231934,0.020752,0.0357056,0.0198364,-0.0222778,0.0134277,0.0311279
136,2,0.0271606,0.00976562,-0.0668335,0.0198364,0.0128174,0.0283813,0.0259399,0.0469971,0.0231934,0.0161743,-0.0354004,0.0247192,0.00274658
136,3,0.0308228,0.0234985,0.0128174,0.0140381,0.0210571,0.00823975,0.0338745,0.0314331,0.0289917,0.0289917,-0.0250244,0.020752,-0.00610352
136,4,0.0268555,0.0802612,0.00488281,0.0128174,0.0396729,0.017395,0.0265503,0.0231934,0.0186157,0.0128174,-0.0238037,0.0476074,0.0167847
137,0,0.0128174,-0.00701904,0.0149536,0.0210571,-0.00183105,0.0128174,0.0250244,0.0271606,0.0308228,0.0149536,-0.0137329,0.0186157,0.0201416
137,1,0.0308228,0.0759888,0.0167847,0.0161743,0.0143433,0.027771,0.0344849,0.0167847,0.0335693,0.015564,-0.0253296,0.0350952,0.0134277
137,2,0.0338745,0.0100708,-0.0332642,0.0216675,0.00183105,0.0375366,0.0274658,0.0186157,0.0619507,0.00549316,-0.0228882,0.0463867,0.03479
137,3,0.043335,0.0479126,0.015564,-0.000305176,0.0311279,0.0192261,0.0335693,0.0442505,0.0326538,0.0119019,-0.0363159,0.0405884,0.0109863
137,4,0.0274658,0.0167847,-0.00793457,0.0213623,0.015564,0.0418091,0.0143433,0.0421143,0.0378418,0.010376,-0.0286865,0.0216675,0.0161743
138,0,0.0149536,0.0296021,0.00701904,-0.0201416,0.0463867,0.0164795,0.0543213,0.0280762,0.0317383,0.0146484,-0.0228882,0.0177002,0.0149536
138,1,0.043335,0.012207,0.0115967,0.00823975,0.00640869,0.0210571,0.0234985,0.038147,0.0299072,0.0106812,-0.0314331,0.0384521,0.038147
138,2,0.0323486,-0.0305176,0,0.0231934,0.0653076,0.0152588,0.0238037,-0.00305176,0.027771,0.00793457,-0.0308228,0.0204468,0.0210571
138,3,0.0387573,0.0228882,0.0149536,0.0244141,-0.00274658,0.0149536,0.0427246,0.0415039,0.0311279,0.0152588,-0.0457764,0.0180054,-0.00579834
138,4,0.0418091,0.00427246,0.0204468,0.0183105,0.0167847,0.0216675,0.0302124,0.0341797,0.0177002,0.00946045,-0.0262451,0.0836182,0.00488281
139,0,0.0289917,0.0222778,0.0338745,0.00366211,0.0140381,-0.00946045,0.022583,0.0302124,0.0201416,0.0149536,-0.0262451,0.0201416,-0.0115967
139,1,0.0195312,0.0112915,0.00549316,0.0128174,0.00946045,0.0241089,0.017395,0.0588989,0.0247192,0.0271606,-0.0372314,0.0170898,-0.0292969
139,2,0.0305176,0.0198364,-0.0088501,0.0299072,0.0198364,0.0125122,0.0189209,0.0265503,0.0186157,0.0146484,-0.0311279,0.0262451,-0.00152588
139,3,0.0213623,0.0332642,0.0140381,0.0119019,0.00732422,0.0317383,0.017395,0.0354004,0.010376,-0.0183105,-0.0274658,0.0244141,0.0128174
139,4,0.0119019,0.0354004,0.0271606,0.0213623,-0.00274658,0.0222778,0.0302124,0.00366211,0.00915527,0.0167847,-0.0299072,0.0320435,0.0350952
140,0,0.0369263,0.0234985,-0.0131226,0.0314331,0.0106812,0.0271606,0.0274658,0.0192261,0.000915527,0.00183105,-0.0234985,0.0201416,0.022583
140,1,0.0344849,0.0628662,0.020752,0.012207,0.0177002,0.0152588,0.0216675,0.0305176,0.0201416,0.0192261,-0.0198364,0.0088501,0.0234985
140,2,0.0384521,0.0369263,0.00305176,0.0210571,0.00488281,0.0222778,0.0256348,0.0152588,0.0213623,0.032959,-0.0299072,0.0363159,0.022583
140,3,0.0372314,0.0292969,0.0146484,0.0204468,0.00946045,0.0244141,0.015564,0.0219727,-0.0234985,0.0198364,-0.0262451,-0.0350952,0.020752
140,4,0.0280762,0.0332642,0.015564,0.00579834,0.0335693,0.0100708,0.0161743,0.0314331,0.0238037,0.0280762,-0.0137329,0.0109863,0.0134277
141,0,0.0363159,0.0271606,0.0140381,0.0204468,0.0186157,0.0332642,0.0366211,0.0384521,0.0152588,0.0137329,0.0100708,0.0216675,0.0119019
141,1,0.0387573,0.0219727,0.00152588,0.0195312,0.0238037,0.0335693,0.0247192,0.0567627,0.0219727,0.012207,-0.0494385,0.0473022,0.0195312
141,2,0.0283813,0.0323486,0.0115967,0.0222778,0.0320435,0.0100708,0.0134277,0.0747681,0.0393677,0.010376,0.00488281,0.0311279,0.00854492
141,3,0.0219727,0.0485229,0.0186157,0.0308228,0.0167847,0.0210571,0.0369263,0.0213623,0.0280762,0.0183105,-0.0274658,0.0405884,0.0164795
141,4,0.0375366,0.0274658,0.0112915,0.0466919,0.0262451,0.0308228,0.0335693,-0.00213623,0.0228882,0.0210571,-0.0262451,0.0320435,0.0189209
142,0,0.0259399,0.020752,0.00671387,-0.00488281,-0.00274658,0.0390625,0.043335,0.0177002,0.0131226,0.0436401,-0.0369263,0.0286865,0.0262451
142,1,0.0286865,0.027771,0.00854492,-0.00366211,0.000915527,0.00701904,0.0366211,0.00915527,0.0180054,0.0280762,-0.0305176,0.0302124,0.0628662
142,2,0.0366211,0.0390625,0.00976562,0.00427246,0.0195312,-0.00579834,0.017395,0.0128174,-0.0473022,0.00213623,-0.0296021,0.111084,0.0360107
142,3,0.0363159,0.0317383,0.0134277,0.0106812,0.00946045,0.00671387,0.0149536,-0.0231934,0.0228882,0.00579834,0.020752,0.0164795,0.0186157
142,4,0.0515747,0.0424194,0.0167847,-0.0411987,0.0180054,0.017395,0.0372314,0.0134277,0.0180054,0.0378418,-0.0408936,0.0231934,0.0296021
143,0,0.0363159,0.0360107,0.00976562,0.0112915,0.0738525,0.0131226,0.00976562,0.000915527,0.0326538,0.00640869,-0.0314331,0.0189209,0.0518799
143,1,0.0189209,0.03479,0.0485229,0.0234985,0.0170898,-0.0613403,0.00610352,0.00396729,0.0656128,-0.00915527,-0.043335,0.0308228,0.0640869
143,2,0.0259399,0.0164795,0.0198364,0.0183105,0.0262451,0.0253296,0.010376,0.0152588,0.0259399,-0.00152588,-0.0378418,0.0308228,0.020752
143,3,0.0372314,-0.00152588,0.0210571,0.0186157,0.0109863,0.0482178,0.0189209,0.0292969,0.0683594,-0.00183105,-0.0247192,0.0424194,0.0271606
143,4,0.0418091,0.0384521,0.0125122,0.0320435,0.0149536,-0.00671387,0.0158691,0.00457764,0.0366211,0.00549316,-0.0286865,0.03479,0.0332642
144,0,0.0405884,0.0311279,0.0387573,0.0137329,-0.000610352,0.00335693,0.0137329,0.0115967,-0.0195312,0.0292969,-0.0231934,-0.0271606,0.012207
144,1,0.0363159,0.0228882,0.0180054,0.0128174,-0.00183105,0.00183105,-0.000610352,0.0186157,0.0299072,0.0238037,-0.0341797,0.0463867,-0.0164795
144,2,0.0167847,0.0543213,0.038147,0.00610352,0.0183105,0.0167847,0.0137329,0.0424194,0.038147,0.0314331,-0.0299072,0.0289917,-0.0106812
144,3,0.0375366,0.0424194,0.00518799,0.0170898,0.0259399,0.0442505,-0.0189209,0.050354,0.0186157,0.0247192,-0.0186157,0.0268555,0.0195312
144,4,0.0317383,0.0585938,0.0164795,0.0189209,0.00488281,0.0268555,0.00457764,0.057373,0.020752,0.0283813,-0.0213623,0.0354004,-0.00396729
145,0,0.012207,0.0430298,0.0338745,0.0088501,0.0344849,0.0125122,0.0131226,0.0549316,0.0216675,0.0311279,-0.039978,0.0393677,0.0119019
145,1,-0.00915527,0.0375366,0.0320435,-0.0457764,0.0149536,-0.0149536,-0.039978,0.0350952,0.0109863,0.0366211,-0.0213623,0.0387573,0.0128174
145,2,0.0445557,0.0366211,0.0308228,0.0323486,-0.00671387,0.0128174,0.0177002,0.0320435,0.0280762,0.0256348,-0.0088501,0.00915527,0.0186157
145,3,0.0869751,0.0393677,0.0274658,0.0161743,0.0137329,0.010376,-0.0274658,0.038147,0.0222778,0.0302124,-0.0341797,0.0286865,0.0167847
145,4,0.0289917,0.0497437,0.0183105,0.022583,0.0250244,-0.0234985,0.0100708,0.0384521,0.0146484,0.0396729,-0.043335,0.0488281,0.0296021
146,0,0.0299072,0.0396729,0.0326538,0.0292969,0.0152588,0.0100708,0.012207,0.0445557,0.0161743,0.0363159,-0.0296021,0.0500488,-0.0109863
146,1,0.0363159,0.0442505,0.0238037,0.0158691,0.0115967,0.00946045,0.0323486,0.0238037,0.0100708,0.0375366,-0.0283813,0.0308228,-0.00701904
146,2,0.0265503,0.0552368,0.0366211,0.0146484,0.0271606,0.038147,0.0131226,0.0268555,0.0256348,0.0308228,-0.0341797,0.010376,0.00366211
146,3,0.0372314,-0.0308228,0.0305176,0.00610352,0.0524902,0.0158691,0.0299072,-0.0387573,0.017395,0.0341797,-0.0344849,0.0280762,0.0286865
146,4,0.0271606,0.0372314,0.020752,0.0238037,0.0161743,0.00915527,0.0137329,0.0213623,0.0265503,0.0125122,-0.0320435,0.0262451,0.0576782
147,0,0.027771,0.0189209,0.0012207,0.0378418,0.0137329,0.00823975,0.0543213,0.0186157,0.0296021,-0.0289917,-0.0396729,0.0274658,0.0546265
147,1,0.0335693,0.0320435,0.00671387,0.0128174,0.0167847,0.0177002,0.0292969,-0.0280762,0.0350952,0.0296021,0.00946045,0.010376,0.0500488
147,2,0.0296021,0.062561,0.0320435,0.0167847,0.0289917,0.00366211,0.0247192,0.0216675,0.0372314,0.0177002,-0.0247192,0.0274658,0.0558472
147,3,0.0247192,0.00732422,0.0198364,0.0152588,0.0149536,0.0198364,-0.0354004,0.012207,0.0216675,0.043335,-0.0210571,0.0326538,0.0909424
147,4,0.0283813,0.0698853,0.043335,0.0357056,0.0256348,0.0177002,0.00579834,0.0292969,0.0286865,0.0183105,-0.0384521,0.0332642,0.0372314
148,0,0.0335693,0.0350952,0.0296021,0.0189209,0.0238037,0.0564575,0.00671387,0.0204468,0.0491333,0.0350952,-0.0189209,0.0448608,0.0109863
148,1,0.0378418,-0.0210571,0.03479,0.0241089,-0.0366211,-0.00274658,-0.00305176,0.0186157,0.0308228,0.0442505,-0.0238037,0.0137329,-0.00823975
148,2,0.050354,0.0408936,0.0286865,0.0183105,0.0424194,0.00335693,-0.00335693,0.017395,0.0280762,0.0338745,-0.0250244,0.0305176,0.000305176
148,3,0.0698853,0.0439453,0.0244141,0.0689697,0.0311279,0.0100708,0.00366211,0.020752,0.0292969,0.0259399,-0.0259399,0.0402832,0.0296021
148,4,0.032959,0.0558472,0.0357056,0.00854492,0.00427246,0.0146484,0.0662231,0.0125122,0.0158691,0.0567627,-0.0308228,0.0189209,0.0265503
149,0,0.0335693,0.043335,0.03479,0.0134277,0.0244141,0.0140381,0.00366211,0.0143433,0.00488281,0.0253296,-0.0424194,0.0302124,0.0164795
149,1,0.0415039,0.0244141,0.0363159,0.0299072,0.0302124,0.00640869,0.0109863,0.0109863,0.0088501,0.0158691,-0.0219727,0.038147,-0.00640869
149,2,0.0280762,0.0341797,0.0180054,0.0415039,0.0228882,0.00579834,0.00854492,0.0216675,0.0344849,0.0415039,-0.0283813,0.0335693,0.0161743
149,3,0.0698853,0.0363159,0.012207,0.057373,0.0241089,0.0186157,0.0192261,-0.00305176,0.0283813,0.0170898,-0.0262451,0.0326538,0.0463867
149,4,0.03479,0.0512695,0.0350952,0.0463867,0.0115967,0.012207,0.0735474,0.00793457,0.0164795,0.0595093,-0.0402832,0.0302124,0.0576782
150,0,0.0430298,0.0430298,0.0238037,0.0408936,0.0408936,0.022583,0.0158691,-0.000610352,-0.00244141,0.0201416,-0.038147,0.0234985,0.0323486
150,1,0.0253296,0.0537109,0.0384521,0.0137329,0.012207,-0.015564,0.0234985,0.00671387,-0.0473022,0.015564,-0.0143433,0.0256348,0.012207
150,2,0.0192261,0.0201416,0.0189209,0.0106812,0.0253296,0.015564,0.0109863,-0.00457764,-0.00610352,0.0195312,-0.0262451,0.0405884,0.000610352
150,3,0.0216675,0.0219727,0.0384521,0.0222778,0.0250244,0.017395,0.0204468,0.000610352,-0.0228882,0.0323486,-0.0256348,-0.00457764,0.0335693
150,4,0.020752,0.0344849,0.0256348,0.0262451,0.0106812,0.0289917,0.0180054,0.0012207,0.00274658,0.00671387,-0.0491333,0.00579834,0.039978
151,0,0.00640869,0.0259399,0.0363159,0.0256348,0.0146484,-0.0265503,0.0146484,0.00152588,-0.0244141,0.0143433,-0.0195312,0.0842285,0.0210571
151,1,0.0222778,0.0344849,0.0396729,0.0265503,0.0299072,0.0158691,-0.00518799,0.0222778,0.0259399,0.0219727,-0.0311279,0.0289917,-0.0192261
151,2,0.0469971,0.0201416,0.0213623,0.0292969,0.0302124,0.0289917,0.0106812,0.0201416,0.00793457,0.0228882,-0.0186157,0.0204468,0.0280762
151,3,0.0350952,0.0167847,0.0427246,0.032959,0.0439453,0.0317383,0.00701904,-0.00244141,0.0106812,0.0231934,-0.0323486,0.0241089,0.027771
151,4,0.0366211,0.0311279,0.0930786,0.0341797,0.0286865,-0.00915527,0.00610352,0.0256348,0.0131226,0.0271606,-0.0213623,0.0476074,0.0302124
152,0,0.0326538,0.0405884,0.0622559,0.0289917,0.0848389,0.0308228,0.0161743,0.012207,-0.0012207,0.0177002,-0.0262451,0.0256348,0.0119019
152,1,0.027771,0.0274658,0.0488281,0.0314331,0.0134277,0.0363159,0.0149536,0.0283813,-0.0161743,0.0195312,-0.0131226,0.050354,0.0100708
152,2,0.032959,0.0265503,0.0543213,0.0158691,0.0262451,0.0256348,0.0210571,0.0146484,0.0167847,0.0164795,-0.0634766,0.0289917,0.0201416
152,3,0.0363159,0.0320435,0.038147,0.0265503,0.0302124,0.0265503,0.00915527,0.0305176,0.00640869,0.0274658,-0.0198364,0.0231934,0.0442505
152,4,0.0338745,0.0567627,0.0637817,0.0250244,0.00732422,0.0216675,-0.0167847,0.0271606,0.0231934,0.0241089,-0.0222778,0.0271606,0.0488281
153,0,0.0109863,0.027771,0.039978,0.0286865,0.0213623,0.0180054,0.0213623,0.0271606,0.0186157,-0.0164795,-0.0323486,0.0256348,0.00976562
153,1,0.0338745,0.0161743,0.0274658,0.0537109,0.0234985,0.0119019,0.0262451,0.00762939,0.0204468,0.0286865,-0.0204468,0.0402832,0.0274658
153,2,0.0167847,0.0308228,0.0265503,0.0241089,0.0112915,0.0302124,0.0109863,-0.010376,0.0137329,0.0112915,-0.0363159,0.0439453,0.0296021
153,3,0.0366211,0.0320435,0.0274658,0.0167847,0.0286865,0.0308228,0.0100708,0.000915527,0.0506592,0.00976562,-0.020752,0.0469971,0.0448608
153,4,0.038147,0.0308228,0.0393677,0.0598145,0.0430298,0.0195312,0.0378418,0.0109863,0.00823975,0.0192261,-0.0286865,0.0280762,0.0393677
154,0,0.0238037,0.00335693,0.0527954,0.0241089,0.0302124,0.0198364,0.0112915,0.0186157,-0.0213623,0.0183105,-0.0299072,0.0125122,0.0427246
154,1,0.0418091,0.0180054,0.032959,0.0131226,0.0369263,0.0393677,0.0134277,0.00518799,0.0204468,0.0238037,-0.0332642,0.0302124,0.0177002
154,2,0.0128174,0.0271606,0.0204468,0.0201416,0.0219727,0.0424194,0.0204468,0.0119019,0.0265503,0.00793457,-0.027771,0.0302124,0.0189209
154,3,0.0302124,0.0177002,0.0247192,0.0286865,0.0482178,0.0424194,0.0106812,-0.038147,0.0372314,0.0219727,-0.00427246,0.0152588,0.0448608
154,4,0.0268555,0.0149536,0.0210571,0.0299072,0.0344849,0.015564,0.0183105,0.0186157,0.0308228,0.022583,-0.0201416,0.0192261,0.0320435
155,0,0.0164795,0.0216675,0.0326538,0.0238037,0.0183105,0.0234985,0.0213623,0.0271606,0.0216675,0.0183105,-0.0158691,0.0335693,0.0476074
155,1,0.0228882,0.0268555,0.0231934,0.0283813,0.0134277,0.0360107,0.0134277,0.00274658,0.0302124,0.0296021,-0.0283813,0.0186157,0.0320435
155,2,0.0250244,0.0164795,0.00549316,0.0241089,0.0320435,0.0115967,0.0195312,-0.000915527,0.0204468,0.0488281,-0.0286865,0.0149536,0.0408936
155,3,0.0332642,0.0344849,0.0500488,0.0442505,0.0439453,0.0250244,0.0183105,-0.00671387,0.0109863,0.0405884,-0.0177002,0.0250244,0.0448608
155,4,0.00640869,0.0213623,0.0543213,0.0167847,0.0286865,0.0354004,0.039978,-0.000305176,0.00274658,0.0570679,-0.0164795,0.0274658,-0.0204468
156,0,0.0198364,0.0201416,0.0360107,0.0274658,0.0253296,0.0177002,0.0341797,0.0201416,0.0271606,0.0183105,-0.027771,0.0137329,0.0482178
156,1,0.0588989,0.0256348,0.0491333,0.0253296,0.0396729,0.0363159,0.0296021,0.0259399,0.027771,0.0198364,-0.0177002,0.0238037,0.0482178
156,2,0.0192261,0.0817871,0.0646973,0.0219727,0.0210571,0.0134277,0.0238037,0.0109863,0.020752,0.017395,-0.017395,0.0219727,0.0247192
156,3,0.0292969,0.0146484,0.0384521,0.0299072,0.0411987,0.0213623,-0.0326538,0.0292969,0.0296021,0.0228882,-0.0213623,0.0234985,0.0942993
156,4,0.0210571,0.0250244,0.0540161,0.0402832,0.0238037,0.0448608,0.0137329,0.0241089,0.0137329,0.0195312,-0.0262451,-0.0231934,0.0439453
157,0,0.0231934,0.0228882,0.00396729,0.0286865,0.0341797,0.0338745,0.0244141,0.0177002,0.0131226,0.00671387,-0.0167847,0.0335693,0.0518799
157,1,0.0158691,0.00274658,0.0790405,0.0335693,0.0244141,0.0222778,0.0341797,0.0280762,0.00946045,0.00488281,-0.0274658,0.0308228,0.0338745
157,2,0.0689697,0.0302124,0.0271606,0.022583,0.0213623,0.022583,0.0262451,0.0201416,0.020752,0.00915527,-0.0250244,0.0222778,0.0241089
157,3,0.0372314,0.0228882,0.0344849,0.0469971,0.0286865,0.0244141,0.0247192,0.0320435,0.00183105,0.00762939,-0.0213623,0.0241089,0.0747681
157,4,0.0299072,0.00427246,0.0268555,0.0344849,0.0262451,0.0140381,0.0363159,0.00701904,0.0299072,0.00640869,-0.0247192,0,0.0640869
158,0,0.0140381,0.0180054,0.022583,0.0335693,0.0390625,0.0265503,-0.00579834,0.0332642,0.00549316,0.010376,-0.0344849,0.020752,0.0521851
158,1,0.0158691,0.0149536,0.0280762,0.0424194,0.0366211,0.0338745,0.020752,0.0198364,0.0259399,0.0283813,-0.0201416,0.0515747,0.0430298
158,2,0.0366211,-0.0115967,0.0317383,0.0302124,0.0146484,0.0274658,0.038147,-0.0167847,0.0189209,0.0265503,-0.0180054,0.0396729,0.0579834
158,3,0.0317383,0.00427246,0.0302124,0.0332642,0.0244141,0.0161743,0.0378418,0.0204468,0.0125122,0.0195312,-0.0283813,0.0302124,0.0595093
158,4,0.0192261,0.015564,0.0372314,0.0308228,0.0241089,0.0152588,0.043335,0.00854492,0.0149536,0.0262451,-0.0238037,0.0210571,0.0350952
159,0,0.015564,0.0109863,0.0274658,0.0289917,0.0234985,0.0192261,0.039978,-0.0231934,0.0201416,0.0338745,-0.0497437,0.0143433,0.0259399
159,1,0.0323486,0.0143433,0.0393677,0.0311279,0.0262451,0.0338745,0.032959,0.0183105,0.012207,0.015564,-0.0143433,0.0189209,0.0265503
159,2,0.0274658,0.00762939,0.0314331,0.0262451,0.0292969,0.0253296,0.0415039,0.0201416,0.0280762,0.00549316,-0.0411987,0.0125122,0.032959
159,3,0.0195312,0.0216675,0.0375366,0.0335693,0.0384521,0.0271606,0.0427246,0.0106812,-0.0247192,0.0183105,-0.0210571,0.0357056,0.00549316
159,4,0.0146484,0.0161743,0.0274658,0.0408936,0.0537109,0.0244141,0.0509644,0.00732422,0.022583,0.0204468,-0.0189209,0.0289917,0.0524902
160,0,-0.00549316,0.0143433,0.10437,0.0476074,0.0366211,0.00793457,0.067749,0.00946045,0.0592041,-0.00274658,-0.0238037,-0.0253296,0.00976562
160,1,0.0119019,0.00793457,0.017395,0.0454712,0.0259399,-0.00640869,0.0415039,-0.00396729,0.0186157,0.0234985,-0.0128174,0.0189209,0.0238037
160,2,0.0195312,0.0305176,0.015564,0.0286865,0.0201416,0.0375366,0.0515747,0.00701904,0.00396729,0.0109863,-0.0158691,0.0170898,0.00854492
160,3,0.0201416,0.0152588,0.0231934,0.0512695,0.0360107,0.0234985,0.0332642,0.0628662,0.00854492,0.00305176,0.0119019,0.032959,0.0265503
160,4,0.0253296,0.0186157,0.050354,0.0250244,0.0228882,0.0991821,0.0177002,0.0189209,-0.0100708,0.015564,-0.0152588,0.0283813,0.0146484
161,0,0.0186157,0.0268555,0.0259399,0.0350952,-0.00152588,0.0387573,0.0195312,-0.0354004,0.0140381,0.00549316,-0.0213623,0.0274658,0.00518799
161,1,0.0231934,0.0134277,0.0259399,0.0320435,0.0402832,0.017395,0.00701904,0.0152588,0.0228882,0.0112915,-0.0158691,-0.0457764,0.0189209
161,2,0.0183105,0.0106812,0.0201416,0.0271606,0.0341797,0.0286865,0.0296021,-0.00549316,0.0164795,-0.00732422,-0.0195312,0.0296021,0.010376
161,3,0.0183105,0.0216675,0.00213623,0.0338745,0.0411987,0.017395,0.0323486,-0.0119019,0.0238037,0.00701904,-0.0164795,0.0820923,0.0204468
161,4,0.0189209,0.0137329,0.015564,0.0524902,0.0296021,0.0415039,0.00366211,-0.00366211,0.0280762,0.0186157,-0.0238037,0.0213623,0.0323486
162,0,0.012207,0.0204468,0.0158691,0.0158691,0.0189209,0.0473022,0.0253296,0.0262451,-0.00305176,0.0177002,-0.065918,0.0228882,0.000915527
162,1,0.0201416,0.017395,0.0183105,0.0183105,0.0396729,0.0296021,0.00152588,0.0427246,0.000915527,-0.010376,-0.027771,0.0149536,0.0405884
162,2,0.022583,0.0158691,0.0259399,0.0390625,0.055542,0.0366211,0.00366211,0.104065,0.027771,0.0119019,-0.0219727,0.0167847,0.00671387
162,3,-0.0314331,0.0100708,0.0259399,-0.0125122,0.0289917,0.0231934,-0.0292969,0.0671387,0.0262451,0.000915527,-0.0454712,0.0360107,-0.00793457
162,4,0.0308228,0.0372314,0.022583,0.0601196,0.0360107,0.0344849,0.0372314,0.050354,0.0128174,0.00518799,-0.0354004,0.0180054,0.00396729
163,0,0.0250244,0.0195312,0.020752,-0.0228882,0.0326538,0.022583,0.00671387,0.0469971,0.0106812,0.022583,-0.0201416,0.010376,-0.00671387
163,1,-0.0241089,0.0192261,0.0164795,-0.00671387,0.0286865,0.0265503,0.0402832,0.0393677,0.0213623,0.0186157,-0.0271606,0.0283813,0.0271606
163,2,0.0189209,0.00854492,0.0250244,0.0146484,0.0497437,0.0149536,0.00976562,0.0317383,0.00579834,0.0259399,-0.0149536,0.0146484,0.0354004
163,3,0.0253296,0.00305176,0.020752,0.0152588,0.0244141,0.0393677,0.0350952,0.0201416,0.0177002,0.0115967,-0.0189209,0.0164795,0.0946045
163,4,0.00518799,-0.0338745,0.0320435,0.0338745,0.0595093,0.0247192,0.0296021,0.0244141,0.0195312,0.00793457,-0.0106812,0.0152588,0.0527954
164,0,0.0177002,-0.0109863,0.0256348,0.0109863,0.03479,0.0686646,0.0436401,0.0378418,-0.0143433,0.0192261,-0.0204468,0.0274658,0.0271606
164,1,0.0189209,0.0546265,0.0125122,0.0473022,-0.0170898,0.0305176,0.0363159,0.0445557,0.0323486,0.022583,-0.0180054,0.0149536,0.0543213
164,2,0.0137329,0.0131226,0.0280762,0.0134277,0.0314331,0.0280762,0.0500488,0.0332642,0.0311279,0.0140381,-0.020752,0.0152588,0.0170898
164,3,0.0280762,-0.010376,0.0195312,0.0280762,0.0500488,0.032959,0.0317383,0.0534058,0.0158691,0.0189209,-0.0244141,0.0250244,0.0759888
164,4,0.0650024,0.0222778,0.0213623,0.0253296,0.0411987,0.0323486,0.022583,0.0366211,0.0317383,0.0268555,-0.0189209,0.0115967,0.0411987
165,0,0.0115967,-0.0213623,0.0360107,0.0256348,0.0299072,0.0338745,0.0436401,0.022583,0.0234985,0.0204468,-0.0140381,0.0228882,0.0189209
165,1,-0.00457764,0.0198364,0.022583,-0.0302124,0.0112915,0.0424194,0.050354,0.0454712,0.010376,0.0595093,-0.00335693,0.0112915,-0.0527954
165,2,0.0228882,0.00946045,0.0213623,0.0238037,-0.0149536,0.0344849,0.00396729,0.0314331,0.0271606,0.0137329,-0.0195312,0.0234985,-0.012207
165,3,0.0088501,-0.00915527,0.0167847,0.0259399,0.0326538,0.0372314,0.0283813,0.00396729,-0.000305176,0.00946045,-0.0161743,0.0482178,0.00823975
165,4,0.00762939,0.00762939,0.0100708,0.0286865,0.104675,0.0338745,0.0289917,0.0961304,0.0119019,-0.0012207,-0.0292969,0.0146484,0.0247192
166,0,0.0143433,0.0164795,0.0183105,0.00305176,0.043335,0.03479,0.0396729,0.0259399,0.0299072,0.0311279,-0.0128174,0.0274658,0.0375366
166,1,0.0204468,0.0115967,0.0152588,0.00152588,0.0479126,0.0228882,0.0808716,-0.00976562,0.0262451,0.0570679,-0.00732422,0.0427246,-0.00762939
166,2,0.0314331,0.00946045,-0.0299072,0.0222778,0.0271606,0.0286865,0.0421143,0.0259399,0.0158691,0.000915527,-0.0253296,0.0219727,0.0604248
166,3,0.045166,0.00854492,0.00488281,0.0164795,0.0241089,0.0250244,0.0283813,0.0320435,0.0158691,0.012207,-0.0177002,0.0265503,0.0421143
166,4,0.0183105,0.0234985,0.0119019,0.0244141,0.0292969,0.0708008,0.0457764,0.0222778,0.0341797,0,-0.0216675,0.010376,0.122681
167,0,0.0131226,0.0164795,-0.0482178,0.0125122,0.032959,0.0305176,0.0369263,0.00946045,0.00946045,0.00854492,-0.0201416,0.00305176,0.00976562
167,1,0.0183105,0.0170898,0.00366211,0.0128174,0.0238037,0.0262451,0.0247192,0.0234985,0.017395,0.0238037,-0.0238037,0.0170898,0.0106812
167,2,0.0177002,0.0390625,0.0088501,0.0448608,0.0320435,0.038147,0.0384521,0.0186157,0.0231934,0.0283813,-0.012207,0.0119019,0.161743
167,3,0.0338745,0.00274658,0.00946045,0.0219727,0.038147,0.0350952,0.0274658,0.0183105,0.0149536,0.00488281,-0.0265503,0.00793457,0.0204468
167,4,0.0231934,0.0192261,0.0146484,0.0164795,0.0192261,0.0265503,0.0192261,0.03479,0.0460815,0.0375366,-0.00305176,0.0601196,0.0177002
168,0,0.00640869,0.0234985,0.0216675,0.0134277,0.0286865,0.0509644,0.0259399,0.0161743,0.0134277,0.0274658,-0.0161743,-0.0106812,-0.0320435
168,1,0.0323486,0.0534058,0.00549316,0.00915527,0.0326538,0.0320435,0.0320435,0.0280762,0.0137329,0.0216675,-0.0125122,0.0192261,-0.0219727
168,2,0.0427246,0.0247192,0.0164795,0.0305176,0.0317383,0.0283813,0.03479,0.00518799,0.0247192,0.0375366,0.0180054,0.0152588,0.00946045
168,3,0.0292969,0.0283813,0.00549316,0.0201416,0.0320435,0.0521851,0.0296021,0.00427246,0.0256348,0.0372314,-0.00823975,-0.0375366,0.00793457
168,4,0.0213623,0.0286865,0.0161743,0.017395,0.0289917,0.103455,0.0427246,0.0161743,-0.0250244,0.0369263,-0.0265503,0.0234985,0.0189209
169,0,0.0134277,0.0378418,0.0137329,0.0128174,0.032959,-0.00549316,-0.00701904,0.0262451,0.0405884,0.0164795,-0.0167847,0.0283813,0.0238037
169,1,0.0186157,0.000915527,0.022583,0.0247192,0.0421143,0.0320435,0.0210571,0.0567627,0.00183105,0.0338745,-0.0689697,0.0268555,0.00305176
169,2,0.0146484,0.00854492,0.0784302,0.00915527,0.0320435,-0.0320435,0.0234985,0.0289917,0.022583,0.038147,-0.0204468,0.0448608,-0.0180054
169,3,-0.0265503,0.0247192,0.00701904,0.032959,0.0375366,0.0112915,0.0439453,0.0128174,0.0469971,0.0234985,-0.00701904,0.0317383,-0.0161743
169,4,0.0286865,0.00701904,0.00335693,0.0146484,0.0384521,0.057373,0.032959,0.0616455,0.00762939,0.0253296,-0.0695801,0.0250244,0.0296021
170,0,0.0357056,0.010376,0.00793457,-0.0228882,0.0299072,0.0402832,0.0469971,0.0265503,0.0183105,0.0238037,-0.00762939,0.00671387,0.03479
170,1,0.0363159,0.0354004,0.00732422,0.0320435,0.0299072,0.0289917,0.0317383,0.0241089,0.0234985,0.0247192,-0.0286865,-0.00976562,-0.00427246
170,2,0.00213623,0.015564,0.039978,0.0167847,0.0274658,0.0375366,0.0390625,0.0222778,0.0131226,0.0274658,-0.0274658,0.0164795,0.0631714
170,3,0.0213623,0.0112915,0.0469971,0.0274658,0.0296021,0.0582886,0.0363159,0.0259399,0.0497437,0.015564,-0.0167847,0.0183105,0.142212
170,4,0.0134277,0.00335693,0.00732422,0.0228882,0.0390625,0.0332642,0.043335,0.0119019,0.0143433,0.0360107,-0.0115967,0.0292969,0.325317
171,0,0.039978,0.0320435,-0.0012207,0.0332642,0.0268555,0.0149536,0.0289917,0.0280762,0.00701904,0.0253296,-0.0265503,0.0170898,0.150757
171,1,0.0112915,0.0146484,0.0274658,0.0213623,0.0335693,0.0302124,0.027771,0.0341797,0.038147,0.0323486,-0.0253296,0.0186157,0.00488281
171,2,0.0161743,0.017395,0.0201416,0.0183105,0.0238037,0.0244141,0.0296021,0.0384521,0.0415039,0.0369263,-0.0106812,0.0320435,-0.115051
171,3,0.0338745,0.0134277,0.0109863,0.0418091,0.0262451,0.09552,0.0323486,0.0344849,-0.00488281,0.0177002,-0.00946045,0.022583,0.0341797
171,4,0.0140381,0.00457764,-0.00915527,0.0170898,0.0338745,0.0521851,0.022583,0.0341797,0.0561523,0.0271606,-0.0201416,0.0119019,0.0112915
172,0,0.0204468,0.0357056,0.0134277,0.0375366,0.0784302,0.0134277,0.027771,0.0219727,0.0302124,0.0146484,-0.022583,0.0167847,0.185852
172,1,-0.0213623,0.0137329,0.0161743,0.0354004,0.0112915,0.0320435,0.038147,0.0274658,0.0280762,0.0357056,-0.0262451,0.00671387,0.250549
172,2,0.00671387,0.0222778,0.00579834,0.027771,0.027771,0.0372314,0.0366211,0.0811768,0.0482178,0.0283813,-0.0201416,0.00793457,0.243225
172,3,0.010376,0.022583,0.0149536,0.03479,0.0375366,0.0378418,0.0488281,0.0231934,0.0314331,0.0338745,-0.00213623,0.00518799,0.21698
172,4,0.00579834,0.0366211,0.00183105,0.0158691,-0.0149536,0.0357056,0.0448608,0.0186157,0.0448608,0.0296021,-0.0177002,0.000915527,0.290222
173,0,0.0195312,-0.0299072,0.0323486,0.0180054,0.015564,0.0317383,0.0445557,0.0341797,0.050354,0.0250244,-0.022583,-0.0119019,0.327148
173,1,0.00732422,-0.012207,0.0308228,0.012207,0.0265503,0.0314331,0.0335693,0.0491333,0.0302124,0.0238037,-0.0350952,0.0192261,0.37262
173,2,0.0140381,0.0231934,0.0183105,0.00518799,0.0323486,0.0244141,0.0296021,0.0384521,0.0369263,0.0296021,-0.0341797,0.0167847,0.332642
173,3,0.0143433,-0.0354004,-0.00793457,0.0228882,0.0585938,0.0357056,0.017395,0.0222778,0.0378418,0.0177002,-0.0213623,0.0183105,0.340576
