Devices
1000
,,Myon - Voltage,,,,,,,,,,,,,
Frame,Sub Frame,GC-M,TA,SOL,VM,VL,RF,BF,ST,GLUT-M,Gracilis,EO,GC-L,Semimembranosus
,,V,V,V,V,V,V,V,V,V,V,V,V,V
1,0,0.0378418,0.0186157,0.0268555,0.012207,0.0210571,0.0250244,0.00305176,0.0228882,0.0134277,0.0195312,-0.0250244,0.0253296,0.0216675
1,1,0.0289917,0.0140381,0.0476074,0.0170898,0.0137329,0.0384521,0.0390625,0.0152588,0.0125122,-0.00152588,-0.0256348,0.0210571,0.0509644
1,2,0.0274658,0.0595093,0.0311279,0.0219727,0.0384521,0.022583,0.0213623,-0.00579834,0.0180054,0.0119019,-0.0326538,0.0369263,0.0241089
1,3,0.0234985,0.0299072,0.0296021,0.0216675,0.0228882,0.0186157,0.0445557,0.0222778,0.0195312,0.0280762,-0.0274658,0.0201416,0.0134277
1,4,0.0698853,0.010376,0.0292969,0.0231934,0.022583,0.0198364,0.0463867,0.0106812,0.0177002,0.017395,-0.0439453,0.0338745,0.0134277
2,0,0.0378418,0.0601196,0.0335693,0.0302124,0.0143433,0.0143433,0.0335693,0.012207,0.00823975,0.0149536,-0.0326538,0.0460815,0.0250244
2,1,0.0143433,0.0192261,0.0521851,0.0341797,0.0320435,0.0259399,0.0198364,0.0210571,-0.00457764,0.0231934,-0.0253296,0.0457764,0.0323486
2,2,-0.0201416,0.0283813,0.0311279,0.0708008,0.0253296,0.0317383,-0.0253296,0.0170898,0.0143433,0.0787354,-0.0149536,0.0210571,-0.0357056
2,3,0.0112915,0.0195312,0.039978,0.0271606,0.0204468,0.0213623,0.00335693,0.00640869,0.0161743,0.0198364,-0.0274658,-0.00335693,0.0299072
2,4,0.0222778,0.0192261,0.0320435,0.0247192,0.0363159,0.0289917,0.0170898,-0.00427246,0.0109863,-0.00396729,-0.0164795,0.0012207,0.0253296
3,0,0.0378418,0.022583,0.0244141,0.0341797,0.0198364,0.0219727,-0.000915527,0.0189209,0.00579834,0.0265503,-0.0210571,-0.00274658,0.0262451
3,1,0.0283813,0.0170898,0.0317383,0.0305176,0.0326538,0.0296021,0.0241089,0.0143433,0.00946045,0.0106812,-0.0210571,0.0183105,0.0305176
3,2,0.0271606,0.0247192,0.032959,0.0354004,0.0421143,0.0158691,0.0326538,0.0640869,0.0283813,0.00579834,-0.0152588,0.0271606,0.0308228
3,3,0.0320435,0.0363159,0.0219727,0.0305176,0.0106812,0.0152588,0.0299072,0.00823975,0.0186157,0.0228882,-0.0146484,0.0189209,0.0244141
3,4,0.0302124,0.0576782,0.00274658,0.0292969,0.0680542,0.0363159,0.0256348,0.0436401,0.0323486,0.0280762,-0.0183105,0.0167847,0.0292969
4,0,0.0228882,0.0161743,-0.00549316,0.027771,0.0234985,0.00427246,0.0195312,0.0238037,-0.0149536,0.0198364,-0.0128174,0.0262451,0.0219727
4,1,0.0280762,0.0283813,0.0283813,0.0131226,0.0363159,0.0384521,0.0250244,0.00305176,0.00579834,0.00244141,-0.0262451,0.0204468,0.039978
4,2,0.0210571,0.00366211,0.0360107,0.0402832,0.0152588,0.0323486,0.0164795,0.0238037,0.0186157,0.00762939,-0.0253296,0.0354004,0.0311279
4,3,-0.027771,0.0302124,0.0189209,0.0360107,0.0204468,0.020752,0.0204468,0.0216675,0.00488281,0.015564,-0.0363159,0.0360107,0.0268555
4,4,0.0418091,0.0466919,0.0296021,0.0393677,0.0219727,0.0158691,0.0305176,-0.00396729,0.0271606,0.0326538,-0.00915527,0.0231934,0.0247192
5,0,0.0326538,0.0268555,0.0131226,0.0112915,0.0244141,0.0253296,0.0491333,0.0292969,0.0109863,0.0088501,-0.0088501,0.0234985,0.00701904
5,1,0.0387573,0.0213623,0.0558472,0.0363159,0.0216675,0.0192261,-0.00244141,0.0421143,0.0186157,0.00854492,-0.00579834,0.0210571,0.0265503
5,2,0.0244141,0.0314331,-0.0210571,0.0524902,0.017395,0.0256348,0.0192261,0.0738525,0.0125122,-0.00183105,0.00335693,0.0222778,0.0320435
5,3,0.00518799,0.0222778,0.0241089,0.050354,0.0305176,0.0299072,0.0213623,0.0436401,0.0259399,0.0109863,-0.0119019,0.0186157,0.0170898
5,4,0.032959,0.000610352,0.0595093,0.0253296,0.0256348,0.0241089,0.0375366,0.0344849,0.015564,0.015564,-0.00823975,0.0143433,0.0439453
6,0,0.0280762,0.0271606,0.0210571,0.0341797,0.0222778,0.0283813,0.0213623,0.0234985,0.0143433,0.00915527,-0.0088501,0.0323486,0.032959
6,1,0.0311279,0.0366211,0.0265503,0.0390625,0.0164795,0.0231934,0.0198364,0.062561,0.0192261,0.0271606,-0.0216675,0.00946045,0.0375366
6,2,0.0183105,0.0378418,0.0109863,0.0289917,-0.0177002,0.0262451,0.039978,0.0543213,0.0112915,0.0289917,-0.0222778,0.0201416,0.0253296
6,3,0.0311279,0.0344849,0.0259399,0.0344849,0.03479,0.0326538,0.0210571,0.00823975,0.0177002,0.0250244,-0.0247192,0.0140381,0.0341797
6,4,0.0332642,0.0219727,0.038147,0.0357056,0.0360107,0.03479,0.0372314,0.027771,0.0109863,0.012207,-0.0244141,0.010376,0.0344849
7,0,0.022583,0.0271606,0.00823975,0.0552368,0.0216675,0.0283813,0.032959,0.0161743,0.0177002,0.0115967,-0.0189209,0.0244141,0.0762939
7,1,0.0134277,0.0186157,0.0302124,0.0476074,-0.00762939,0.00305176,0.0292969,0.0375366,0.0164795,0.0177002,-0.0286865,0.0286865,0.0283813
7,2,0.0445557,0.0289917,0.0308228,0.0488281,0.022583,0.0216675,0.0500488,-0.00366211,0.00427246,0.00823975,-0.00183105,0.00183105,0.00335693
7,3,0.0259399,0.0158691,0.03479,0.0390625,0.0213623,0.0302124,0.032959,0.0192261,0.00457764,0.00793457,-0.0112915,0.0317383,0.0485229
7,4,0.0515747,0.0250244,0.0372314,0.0311279,0.0259399,0.00823975,0.0341797,0.0192261,0.0296021,0.0088501,-0.00396729,0.0265503,0.0479126
8,0,0.0231934,0.0317383,0.0305176,0.0454712,0.027771,0.0128174,0.0448608,0.0241089,0.0161743,0.0152588,0.0146484,0.0167847,0.0424194
8,1,0.0158691,0.0280762,0.0375366,0.0259399,0.0213623,0.0186157,0.0259399,0.00915527,0.0170898,0.0265503,-0.017395,0.0317383,0.0396729
8,2,0.0274658,0.0244141,0.0357056,0.0314331,0.0213623,0.0241089,0.0482178,0.00823975,0.027771,-0.00213623,-0.0238037,0.0250244,0.0463867
8,3,0.020752,0.0161743,0.0296021,0.0286865,0.0704956,0.0131226,0.0338745,0.020752,0.0158691,0.00518799,-0.0231934,0.0442505,0.050354
8,4,0.0491333,0.0289917,0.0302124,0.0274658,0.0286865,0.012207,0.0723267,0.0323486,0.00854492,0.0473022,-0.0308228,0.0369263,0.0735474
9,0,0.0317383,0.0296021,0.00976562,0.0335693,0.0363159,-0.0363159,0.0271606,0.0222778,-0.0146484,0.0167847,-0.0180054,0.0134277,0.0338745
9,1,0.0280762,0.0256348,0.0201416,0.0445557,0.0210571,0.0253296,0.010376,0.0338745,-0.0119019,0.0259399,-0.0344849,-0.012207,0.0305176
9,2,0.0186157,0.0213623,0.0109863,0.0408936,0.0366211,0.0296021,0.0186157,0.00793457,-0.0479126,0,-0.0305176,0.0210571,0.0341797
9,3,0.0198364,0.0280762,0.0357056,0.0308228,0.0195312,0.0234985,0.0109863,0.0170898,0.0650024,0.00732422,-0.0247192,0.00701904,0.0683594
9,4,0.0180054,0.0128174,0.0335693,0.0253296,0.0445557,0.0204468,0.027771,0.0262451,0.00396729,-0.00213623,-0.00976562,0.0201416,0.0488281
10,0,0.00915527,0.0186157,0.0469971,0.0262451,0.0231934,0.0183105,0.0405884,0.0338745,0.0128174,0.0259399,-0.0213623,0.0323486,0.0488281
10,1,0.00274658,0.0137329,0.0466919,0.0363159,0.03479,0.0244141,0.103455,0.0375366,0.00854492,-0.0180054,-0.0296021,0.022583,0.0436401
10,2,0.00518799,0.0119019,0.0344849,0.0238037,0.0405884,0.0442505,0.0332642,0.0167847,0.0137329,0.0119019,-0.0494385,0.0128174,0.0485229
10,3,0.0619507,0.00640869,0.0119019,0.0485229,0.0161743,0.0341797,0.0592041,0.0326538,0.0158691,0.00701904,0.0112915,0.0259399,0.0610352
10,4,0.0161743,0.0250244,0.00152588,0.0405884,0.0152588,0.0387573,0.0326538,0.0375366,0.00793457,0.0219727,-0.0448608,0.0341797,-0.00427246
11,0,0,0.0598145,0.0183105,0.0262451,-0.0088501,0.0445557,0.0244141,0.0231934,0.0234985,0.0244141,-0.032959,0.012207,0.0012207
11,1,0.0238037,0.0115967,0.0253296,0.0231934,0.0332642,0.0668335,0.0222778,0.0183105,0.012207,-0.00183105,-0.0320435,0.0161743,0.020752
11,2,0.0411987,0.0134277,0.0183105,0.0494385,0.0286865,0.0265503,0.0421143,0.0387573,0.00427246,0.00427246,-0.0753784,0.0170898,0.032959
11,3,0.0262451,0.0360107,0.0604248,0.0518799,0.0332642,-0.0268555,0.0463867,0.027771,-0.0189209,0.0131226,-0.0198364,0.0689697,0.0292969
11,4,0.0201416,0.0390625,0.027771,0.0222778,0.0369263,0.0314331,0.0881958,0.00366211,0,-0.0326538,-0.0244141,0.0164795,0.0198364
12,0,0.0238037,0.0231934,0.00518799,0.0848389,0.0564575,0.0274658,0.0457764,0.0131226,0.0244141,0.0170898,-0.0384521,0.00640869,0.0201416
12,1,0.0204468,0.0204468,-0.00366211,-0.0115967,0.0323486,0.0350952,-0.0384521,-0.0143433,0.00793457,-0.0515747,-0.0253296,0.022583,0.0683594
12,2,0.0143433,0.00762939,0.0143433,0.020752,0.0228882,0.0250244,0.0558472,-0.0186157,0.0137329,0.010376,-0.0149536,0.0228882,0.0744629
12,3,0.0427246,0.017395,0.0204468,0.0372314,0.039978,0.022583,0.032959,-0.0119019,0.0628662,0.00823975,-0.032959,0.0253296,0.0662231
12,4,0.0164795,0.0241089,0.0244141,0.0299072,0.0463867,0.0189209,0.0588989,-0.0167847,0.0299072,0.0195312,-0.0244141,0.0183105,0.0552368
13,0,0.0115967,-0.00183105,-0.00549316,0.0335693,0.0390625,0.0341797,0.043335,-0.00518799,0.017395,0.00183105,-0.039978,0.00946045,0.0317383
13,1,0.0228882,0.045166,0.0216675,0.00732422,0.0756836,0.0234985,0.0396729,0.0500488,0.0244141,0.00183105,-0.0210571,0.0323486,0.00518799
13,2,0.00823975,-0.0506592,0.0259399,0.0302124,-0.0305176,0.0323486,0.0366211,0.0152588,0.0119019,-0.00366211,-0.00915527,0.020752,-0.00335693
13,3,0.0231934,0.0109863,0.0100708,0.0234985,0.0418091,0.0482178,0.015564,0.0634766,0.0152588,0.010376,-0.0271606,0.0259399,0.0170898
13,4,0.00671387,-0.043335,0.0299072,0.0241089,0.0344849,0.00762939,-0.00427246,0.0265503,0.00640869,-0.00427246,-0.0195312,0.0198364,0.012207
14,0,0.0198364,0.0128174,0.0360107,0.0231934,0.0186157,0.0335693,-0.00457764,0.03479,0.0253296,0.000610352,-0.0289917,-0.0283813,0.00671387
14,1,0.0106812,0.0238037,0.0265503,0.0222778,0.0259399,0.0384521,-0.0167847,0.151367,0.027771,0.00549316,-0.012207,-0.00488281,-0.00213623
14,2,0.015564,0.0115967,0.0204468,0.0143433,0.0283813,0.0354004,-0.0152588,0.0787354,0.0308228,0.0268555,-0.020752,0.0170898,0.0164795
14,3,-0.0311279,0.0100708,0.0396729,0.0653076,0.0354004,0.0543213,-0.00579834,0.0521851,0.00183105,0.0119019,-0.017395,0.0344849,0.0338745
14,4,0.0234985,0.0186157,0.0204468,0.0265503,0.0283813,0.0418091,0.000610352,0.0701904,0.0247192,0.0192261,-0.03479,0.0216675,0.0109863
15,0,0.0161743,0.00579834,0.0146484,0.0201416,0.0393677,0.039978,-0.0100708,0.010376,0.0170898,-0.00671387,-0.0131226,0.0253296,0.0219727
15,1,0.0183105,-0.00915527,0.0213623,0.0271606,0.039978,0.0384521,-0.0088501,0.0985718,-0.000915527,-0.00183105,0.00640869,0.0387573,0.0183105
15,2,0.00305176,0.0137329,0.0326538,0.0228882,0.0299072,0.0473022,-0.00335693,0.0524902,-0.0268555,0.0180054,-0.0204468,0.0646973,0.0152588
15,3,0.0177002,0.0180054,0.0198364,0.0180054,0.0241089,0.0485229,-0.0213623,0.0497437,0.0134277,0.0372314,-0.0149536,0.0146484,0.0549316
15,4,0.0231934,0.0146484,0.0149536,-0.00396729,-0.012207,0.0286865,-0.00549316,0.0616455,0.0250244,0.00396729,-0.0161743,0.0372314,0.0186157
16,0,0.0140381,0.0216675,0.0244141,0.0146484,0.0360107,0.050354,0.0115967,0.0262451,0.0198364,0.0411987,-0.0256348,-0.00946045,-0.00244141
16,1,0.0115967,0.0189209,0.00732422,0.0189209,0.0323486,0.0308228,0.0320435,0.038147,0.0280762,0.0476074,-0.0210571,0.0161743,-0.0219727
16,2,0.010376,0.0216675,0.0466919,0.0323486,0.0335693,0.0250244,0.0234985,0.0332642,0.00732422,0.0222778,-0.00793457,0.0012207,-0.0305176
16,3,0.00518799,0.0128174,-0.0244141,0.0323486,0.0427246,-0.0265503,0.0274658,0.0390625,-0.015564,0.0299072,-0.0204468,0.03479,-0.0195312
16,4,0.0161743,-0.0186157,0.0100708,0.0198364,0.0476074,0.0152588,0.0308228,0.0201416,0.0268555,0.0234985,-0.0131226,0.0177002,0.00518799
17,0,0.0390625,-0.0088501,0.00915527,0.0271606,0.0238037,0.0360107,0.0454712,0.0476074,0.0186157,0.0234985,-0.0283813,0.0115967,0.0195312
17,1,0.0189209,0.0204468,0.00549316,0.0146484,0.0314331,0.0210571,0.038147,0.0280762,0.0125122,0.00976562,-0.022583,0.0753784,0.0479126
17,2,0.0302124,0.0137329,0.00671387,0.0314331,0.03479,0.0427246,-0.00244141,0.027771,0.0308228,-0.00823975,-0.00183105,0.0201416,0.065918
17,3,0.0210571,0.0112915,0.0186157,0.0180054,0.0109863,0.0308228,0.0436401,0.0323486,0.0250244,0.0195312,-0.0515747,0.00915527,-0.0012207
17,4,0.0332642,0.038147,0.0137329,0.0152588,0.0704956,0.0357056,0.0415039,0.0143433,0.0170898,0.0189209,0.00427246,0.010376,0.00946045
18,0,0.0109863,-0.0012207,0.0427246,0.00976562,0.0265503,0.0466919,0.0515747,-0.0131226,0.0259399,0.0262451,-0.0167847,0.0268555,0.0497437
18,1,0.0158691,0.0747681,0.00732422,0.0210571,-0.0326538,0.0222778,0.0323486,0.0506592,0.0378418,0.0149536,-0.0354004,0.00396729,0.0680542
18,2,0.0247192,0.0183105,0.0283813,-0.00488281,0.0259399,0.0335693,0.0338745,0.0265503,0.0256348,0.000610352,-0.0109863,0.0146484,0.0415039
18,3,0.0186157,0.0289917,-0.0262451,0.0143433,0.0430298,0.0146484,0.0393677,0.0152588,0.012207,0.0360107,-0.0314331,0.0375366,0.0195312
18,4,0.0280762,0.0204468,0.0201416,0.0323486,0.0411987,0.0262451,0.0454712,0.00457764,0.03479,-0.0415039,-0.0350952,0.0128174,0.0576782
19,0,0.0134277,0.0247192,-0.00518799,0.0253296,0.032959,0.0436401,0.0570679,-0.00610352,0.0259399,0.0152588,-0.0244141,0.0332642,0.0131226
19,1,0.0112915,0.0213623,0.00610352,0.0665283,0.0234985,0.0320435,-0.000610352,-0.00366211,0.0460815,0.0650024,-0.0512695,0.0137329,0.0189209
19,2,0.0488281,0.0247192,0.0338745,0.0262451,0.0341797,0.017395,0.0439453,0.0198364,0.039978,0.0228882,-0.032959,-0.00183105,0.0250244
19,3,0.0100708,0.0814819,0.0311279,0.0204468,-0.00213623,0.0384521,0.0408936,0.00366211,0.0344849,0.0137329,-0.0216675,0.00915527,0.0521851
19,4,0.0167847,0.000915527,0.0180054,0.0180054,0.0271606,0.0424194,0.0396729,0.00579834,-0.00854492,0.0265503,-0.0265503,0.039978,0.0238037
20,0,0.027771,0.022583,0.00762939,0.0112915,0.0115967,0.0241089,0.0369263,0.00915527,0.0280762,0.0180054,0.0314331,0.00488281,0.022583
20,1,0.0262451,0.0317383,0.0244141,-0.0012207,0.0204468,0.0341797,0.0265503,0.0128174,0.0256348,0.0357056,-0.0250244,0.0112915,0.0134277
20,2,0.0195312,0.0311279,-0.0286865,0.0378418,0.0323486,0.017395,0.0204468,0.0201416,0.0448608,0.0402832,-0.0170898,0.0463867,-0.067749
20,3,0.00152588,0.0204468,-0.020752,0.0137329,0.0308228,0.0320435,0.0177002,0.0201416,0.0161743,0.0210571,-0.0183105,-0.022583,0.00518799
20,4,0.0106812,-0.012207,-0.000610352,0.0131226,-0.0140381,0.0228882,-0.000305176,0.010376,0.0354004,0.0354004,-0.027771,0.0140381,0.0164795
21,0,0.0244141,0.0335693,0.0106812,0.0180054,0.0454712,0.0128174,0.0189209,0.06073,0.0405884,0.0369263,-0.0149536,-0.00640869,0.00427246
21,1,0.0250244,0.010376,0.0134277,-0.0128174,0.0292969,0.0268555,0.0238037,0.0738525,0.0283813,0.0302124,-0.0177002,0.0152588,0.0100708
21,2,0.0177002,0.0436401,0.0247192,0.017395,0.0588989,0.0244141,0.0262451,0.0500488,0.0320435,0.038147,-0.0210571,0.0222778,0.00976562
21,3,0.0341797,0.0112915,-0.0265503,0.00701904,0.00335693,0.0253296,0.0369263,0.0405884,0.0613403,0.0314331,-0.0198364,-0.0216675,0.0106812
21,4,0.0241089,0.0088501,0.00793457,0.0531006,0.0311279,0.0378418,0.00732422,0.0131226,0.0289917,0.0231934,-0.0402832,0.00976562,-0.000915527
22,0,0.0244141,0.0137329,0.0204468,0.0167847,0.045166,0.0268555,0.0323486,0.057373,0.0283813,0.0131226,0.00213623,0.0286865,-0.00183105
22,1,-0.0363159,-0.00274658,-0.000610352,0.0164795,0.0344849,0.00183105,0.0228882,0.0448608,0.0299072,0.0408936,-0.0415039,0.0393677,-0.00244141
22,2,0.0491333,0.0283813,0.0216675,0.0466919,0.0274658,0.0219727,0.0595093,0.0244141,0.0390625,0.0241089,-0.0531006,0.0262451,0.00457764
22,3,0.0238037,0.00213623,0.0308228,0.017395,0.03479,0.0195312,0.0305176,0.0265503,0.0354004,0.0445557,-0.0317383,0.017395,0.0177002
22,4,0.0149536,0.0195312,0.00457764,0.0216675,0.0189209,0.0436401,0.0378418,0.03479,0.0436401,0.0177002,-0.0369263,0.0152588,0.00152588
23,0,0.0299072,0.0143433,-0.0354004,0.0253296,0.0152588,0.0201416,0.0518799,0.0088501,0.032959,0.000305176,-0.0289917,0.0213623,0.0177002
23,1,0.0344849,0.0201416,0.00701904,0.0140381,-0.0335693,0.0302124,0.0219727,0.0134277,0.0354004,0.0411987,-0.0286865,0.0106812,0.00244141
23,2,0.0216675,0.0152588,0.0134277,0.000305176,0.0167847,0.0292969,0.0421143,0.0369263,0.0415039,0.0158691,-0.0238037,0.00671387,0.00762939
23,3,0.0192261,0.0213623,-0.0012207,-0.0161743,0.0146484,0.0332642,0.0949097,0.020752,0.027771,0.0396729,-0.0213623,0.00549316,-0.00732422
23,4,0.0152588,0.0106812,0.0198364,0.0106812,0.0372314,0.0411987,0.0320435,-0.0292969,0.0213623,0.0140381,0.00640869,0.0405884,0.0112915
24,0,0.00518799,0.0500488,0.00579834,-0.000915527,-0.0320435,0.017395,0.027771,0.0338745,0.0372314,0.0305176,-0.0115967,0.000305176,-0.00488281
24,1,0.00976562,0.0161743,0.0210571,0.00579834,0.0170898,0.0262451,0.0564575,0.0192261,0.0283813,0.00701904,-0.0222778,-0.0106812,-0.0088501
24,2,0.0088501,0.0177002,0.0158691,0.0134277,0.0195312,0.0320435,0.0442505,0.0140381,0.0265503,0.027771,-0.0256348,-0.0460815,0.00823975
24,3,0.0393677,0.020752,-0.0216675,0.0292969,0.0350952,-0.0271606,0.038147,0.0183105,0.0228882,0.0350952,-0.0311279,0.0137329,0.0146484
24,4,0.0213623,-0.00854492,0.0289917,0.017395,0.00244141,0.0366211,0.039978,0.0665283,0.0271606,0.0360107,-0.0308228,0.0253296,0.00152588
25,0,-0.0146484,0.00152588,0.0268555,0.0149536,0.0302124,0.0271606,0.0708008,0.0170898,0.012207,0.0344849,-0.0518799,0.0320435,0.0180054
25,1,-0.0427246,0.0112915,0.00305176,0.0177002,0.0338745,0.0268555,0.0396729,0.010376,0.0308228,0.0210571,-0.0140381,0.0183105,0.0195312
25,2,0.0241089,0.0262451,0.0149536,-0.0317383,0.0238037,0.03479,0.055542,0.00762939,0.0384521,0.0253296,-0.0283813,0.0363159,0.0283813
25,3,0.0222778,0.0222778,0.0119019,0.00915527,0.00305176,0.00793457,0.0201416,0.0210571,0.0338745,0.0253296,-0.00854492,0.0268555,0.010376
25,4,0.0335693,0.0421143,0.0216675,0.0134277,-0.017395,0.0335693,0.0231934,-0.0131226,0.0320435,0.0234985,-0.03479,0.027771,0.0189209
26,0,0.0286865,0.0152588,0.0228882,0.0201416,0.0183105,0.0262451,0.0222778,0.0286865,0.0323486,0.022583,-0.0335693,0.00976562,0.0189209
26,1,0.0509644,0.0137329,0.0167847,-0.0012207,0.0100708,0.0299072,0.0219727,0.0326538,0.0186157,0.0146484,-0.0479126,0.00305176,0.0213623
26,2,0.0161743,0.0244141,0.0210571,0.0115967,0.0201416,0.0320435,0.0762939,0.0186157,0.0292969,-0.0158691,-0.0457764,-0.0183105,0.0238037
26,3,0.0262451,0.0146484,0.0234985,0.0137329,0.0247192,0.0280762,0.0393677,0.0265503,0.022583,0.0363159,-0.043335,0.0222778,0.0241089
26,4,0.0265503,0.0152588,-0.0143433,0.00732422,0.027771,0.0933838,0.0183105,0.043335,0.0820923,0.00915527,-0.0375366,0.0750732,0.0424194
27,0,0.0302124,0.00488281,0.00579834,0.0128174,0.00549316,0.0219727,0.0280762,0.0201416,0.0396729,0.0164795,-0.0366211,-0.0292969,0.0427246
27,1,0.0308228,0.017395,0.0250244,0.00427246,0.0210571,-0.0125122,0.0326538,0.0280762,0.0790405,0.0112915,-0.0350952,0.0280762,0.0213623
27,2,0.0469971,0.0140381,0.017395,-0.00366211,0.015564,0.0183105,-0.0183105,-0.00213623,0.0253296,0.0366211,-0.0143433,0.0198364,0.0585938
27,3,0.0320435,0.0143433,0.00366211,-0.0134277,0.00152588,0.0167847,0.0131226,-0.0146484,0.045166,0.0198364,-0.0332642,0.050354,0.0280762
27,4,0.0314331,0.00549316,0.0134277,0.0112915,0.0234985,0.00671387,-0.00579834,-0.00610352,0.0302124,0.0473022,-0.0549316,0.0192261,-0.0137329
28,0,-0.027771,0.0195312,0.0268555,-0.00274658,0.0109863,0.0164795,0.0189209,0.0012207,0.0375366,0.0198364,-0.0350952,0.0326538,0.0228882
28,1,0.0283813,0.0222778,0.0302124,0.000610352,0.0231934,0.0143433,0.0180054,0.0418091,0.0216675,0.0201416,-0.027771,0.020752,0.00305176
28,2,0.0210571,0.038147,0.032959,0.0131226,0.00946045,-0.0289917,0.0360107,0.0241089,0.0802612,0.0283813,-0.0332642,-0.0588989,0.000610352
28,3,0.012207,0.0305176,0.0363159,0.0143433,0.0360107,0.0149536,0.0610352,-0.0012207,0.0460815,0.0262451,-0.0296021,0.017395,0.0216675
28,4,0.0296021,0.0244141,0.0393677,0.00793457,0.0198364,0.0134277,0.0363159,0.0238037,-0.032959,0.0222778,-0.0271606,0.020752,0.0161743
29,0,-0.027771,0.0302124,0.0311279,0.0149536,0.0305176,0.0234985,0.0463867,0.0180054,0.0219727,0.0250244,-0.0274658,0.0241089,0.0161743
29,1,0.0299072,0.0314331,0.0106812,0.00457764,0.0088501,0.00640869,0.012207,0.0140381,0.0286865,0.0106812,-0.0311279,0.0140381,0.0448608
29,2,0.0338745,0.012207,0.0488281,0.00518799,0.0137329,0.00701904,0.0186157,0.0256348,0.0332642,0.0708008,-0.0259399,0.0311279,0.0469971
29,3,0.0332642,0.0289917,0.00213623,0.0128174,0.00976562,0.0198364,0.062561,0.0756836,0.0363159,0.072937,-0.0296021,0.0250244,-0.0128174
29,4,0.0195312,0.0201416,0.00946045,0.0476074,0.0161743,0.0219727,0.0888062,0.0967407,0.0280762,0.0201416,-0.0372314,0.0384521,0.0115967
30,0,0.0149536,0.0222778,0.0146484,0.0128174,0.0134277,0.0341797,0.0274658,0.0894165,0.0360107,0.0393677,-0.0332642,0.0265503,0.0256348
30,1,0.0320435,0.0219727,0.00610352,0.017395,0.0143433,0.071106,0.00976562,0.0860596,0.0927734,0.0183105,-0.0280762,0.0656128,-0.00915527
30,2,0.0775146,0.022583,0.00854492,0.0421143,0.00762939,0.0137329,-0.0210571,0.0662231,0.0344849,0.032959,-0.0314331,0.0195312,-0.017395
30,3,0.0195312,0.022583,0.0088501,0.0238037,0.017395,0.0350952,0.012207,0.0610352,0.0238037,0.0256348,-0.0234985,0.0143433,0.0088501
30,4,0.0216675,0.0140381,0.032959,0.0253296,0.020752,0.022583,0.00579834,0.0531006,0.0128174,0.0299072,-0.0268555,-0.00274658,0.00579834
31,0,0.00183105,0.0308228,0.0344849,0.0396729,0.0161743,0.00640869,0.00152588,0.0460815,0.0204468,0.027771,-0.0192261,-0.0115967,0.0140381
31,1,0.0234985,-0.00183105,0.0302124,0.015564,0.00793457,0.00701904,0.00762939,0.0390625,0.0299072,0.0445557,-0.0323486,0.0192261,0.0250244
31,2,0.0369263,0.0100708,0.0308228,0.0180054,0.0115967,0.0247192,0.00244141,0.0149536,0.0189209,0.0491333,-0.0350952,0.0106812,0.0131226
31,3,0.0213623,0.032959,0.0308228,0.0134277,0.0189209,0.00823975,-0.00976562,0.0180054,0.0338745,0.0326538,-0.032959,0.0460815,0.0323486
31,4,0.0363159,0.0787354,0.027771,0.0219727,-0.00701904,0.0247192,0.0210571,-0.038147,0.0210571,0.0396729,-0.03479,0.0286865,0.0274658
32,0,0.0320435,0.022583,0.00793457,0.0213623,0.0128174,0.0189209,-0.000915527,0.0366211,0.0344849,0.022583,-0.0271606,0.0274658,0.0396729
32,1,0.0387573,0.0247192,0.0216675,0.0921631,0.0137329,0.00488281,-0.0228882,0.012207,0.0283813,0.0262451,-0.0247192,0.0335693,0.0415039
32,2,0.0616455,0.038147,0.0100708,0.0238037,0.0238037,0.0189209,0.0292969,0.0262451,0.0280762,0.0396729,-0.0299072,0.0463867,-0.0158691
32,3,0.0231934,0.0708008,0.00213623,0.0222778,-0.0335693,0.0152588,0.0247192,0.00671387,0.0265503,0.0302124,-0.0354004,0.0158691,0.0265503
32,4,0.0350952,0.0143433,-0.0112915,0.020752,0.00762939,0.0228882,0.0360107,-0.00274658,0.0305176,0.0460815,0.00518799,0.0305176,0.0228882
33,0,0.0283813,-0.0201416,0.0109863,0.015564,0.0231934,0.0204468,0.0619507,0.0189209,0.00946045,0.0299072,-0.0305176,0.0143433,0.0314331
33,1,0.012207,0.0305176,0.0210571,0.0143433,0.0189209,0.0250244,0.0198364,0.0204468,0.027771,-0.00671387,-0.0466919,0.0357056,0.0460815
33,2,0.0262451,0.0338745,0.00976562,0.020752,0.00152588,-0.0112915,0.0430298,0.0238037,0.0289917,0.0427246,-0.0421143,0.0357056,0.0463867
33,3,0.0320435,0.022583,0.0256348,0.0354004,0.00427246,0.000610352,0.0732422,0.0177002,0.0231934,0.0167847,-0.0326538,0.0326538,0.0320435
33,4,0.0369263,0.0317383,0.0411987,0.0161743,0.00549316,0.00976562,0.0323486,0.0259399,0.0152588,0.0372314,-0.0280762,0.0408936,0.0534058
34,0,0.0354004,0.0378418,0.0280762,0.0335693,-0.00427246,0.00946045,0.0296021,0.0149536,0.0213623,0.0350952,-0.0115967,0.0360107,0.0274658
34,1,0.0424194,0.0219727,0.0222778,0.039978,0.00366211,0.0265503,0.0189209,0.0189209,0.0280762,0.0387573,-0.0253296,0.0241089,0.00976562
34,2,0.0253296,0.0241089,0.00427246,0.0286865,0.0149536,0.0201416,0.00579834,0.0219727,0.0335693,0.050354,-0.022583,0.027771,-0.0115967
34,3,0.0350952,0.0308228,0.0131226,0.0289917,0.00518799,0.017395,-0.00305176,0.0283813,0.0167847,0.0378418,-0.0231934,0.00976562,0.0012207
34,4,0.0302124,0.0292969,0.0402832,0.0241089,0.0210571,-0.0128174,-0.00274658,0.0326538,-0.0494385,0.0262451,-0.0128174,-0.027771,0.0210571
35,0,0.0271606,0.0167847,0.0106812,0.027771,0.0088501,0.0344849,-0.0189209,0,0.0149536,0.0341797,-0.0210571,0.0375366,0.0241089
35,1,0.0424194,0.0518799,0.015564,0.0234985,0.0140381,0.000610352,-0.00701904,0.0222778,0.0262451,0.0442505,-0.03479,0.0402832,0.0247192
35,2,0.0424194,0.022583,0.0238037,0.00610352,0.0247192,0.00549316,0.00396729,0.057373,0.0186157,0.0341797,-0.0720215,0.0393677,0.0396729
35,3,0.0405884,0.0280762,0.0146484,0.0170898,0.0286865,0.0137329,0.00762939,-0.0408936,0.0137329,0.0296021,-0.0250244,0.0357056,0.062561
35,4,0.0292969,0.0442505,0.0280762,0.0167847,0.0189209,0.017395,0.0161743,-0.00427246,0.0311279,0.0393677,-0.0350952,0.0299072,0.0341797
36,0,0.0292969,0.0305176,0.0335693,0.0228882,0.0213623,-0.00915527,0.0177002,0.00762939,0.0238037,0.0299072,-0.0106812,0.0354004,0.0558472
36,1,0.0305176,0.0305176,0.00183105,0.0198364,0.0088501,0.0637817,0.0320435,-0.0100708,0.0119019,0.0460815,-0.0445557,0.0228882,0.0308228
36,2,0.0299072,0.0411987,0.0167847,0.0204468,0.0164795,0.00549316,0.0375366,-0.0134277,0.0274658,0.0146484,-0.0366211,0.0109863,0.0375366
36,3,0.0253296,0.0366211,0.105591,0.0302124,0.0149536,-0.0402832,0.017395,-0.0274658,0.0479126,0.0195312,-0.0372314,-0.039978,0.0631714
36,4,0.0296021,0.0231934,0.0280762,0.0247192,0.0378418,0.00549316,0.0146484,-0.00640869,0.00946045,0.0140381,0.000610352,0.0344849,0.0854492
37,0,0.00579834,0.0314331,0.0253296,0.0369263,0.0109863,0.0170898,0.0344849,-0.0183105,0.0201416,0.0146484,-0.0448608,0.0564575,0.0619507
37,1,0.038147,0.0222778,0.0286865,0.0134277,-0.0515747,0.00396729,0.0289917,-0.000610352,0.0164795,0.0311279,-0.0396729,0.0549316,0.0411987
37,2,0.0323486,0.0201416,-0.0537109,0.0271606,0.00946045,-0.0161743,0.0402832,-0.0164795,0.0457764,0.0265503,-0.0375366,0.0469971,0.0335693
37,3,0.0323486,0.0186157,0.00366211,0.0222778,0.00396729,0.00579834,0.0317383,0.00488281,0.0415039,0.0357056,-0.0320435,0.0292969,0.0454712
37,4,0.0344849,0.0109863,0.0125122,0.0149536,0.0302124,0.0469971,0.0326538,0.0405884,0.0195312,0.0140381,-0.0408936,0.0341797,0.0418091
38,0,0.0213623,0.0286865,0.00366211,0.0170898,0.0137329,0.0189209,0.0341797,0.0561523,0.0189209,0.0576782,-0.0396729,0.0253296,0.0628662
38,1,0.039978,0.0161743,0.0289917,0.0161743,0.0180054,0.0363159,0.0427246,0.0363159,-0.00427246,0.0344849,-0.0454712,-0.038147,0.0631714
38,2,0.0256348,0.0332642,0.0292969,0.0259399,0.0152588,0.0372314,0.0469971,0.0292969,0.0360107,0.0454712,-0.0390625,0.0341797,0.0631714
38,3,0.032959,0.0222778,0.0479126,0.0317383,-0.012207,0.0378418,0.0384521,0.0201416,0.0183105,0.0326538,-0.0296021,0.0213623,0.0610352
38,4,0.0262451,0.0396729,0.027771,-0.0115967,0.0161743,0.00610352,-0.00976562,0.03479,0.0491333,0.0418091,-0.0210571,0.0524902,0.0552368
39,0,0.032959,-0.00823975,0.0274658,0.0271606,0.0100708,0.0195312,0.0210571,0.0228882,0.0250244,0.03479,-0.0128174,0.0234985,-0.00152588
39,1,0.0579834,0.0418091,0.0146484,0.0518799,0.00457764,0.0143433,0.017395,0.0100708,0.0109863,0.0439453,-0.0436401,0.0387573,-0.0363159
39,2,-0.0280762,0.0323486,0.0180054,-0.0436401,0.0119019,0.015564,0.00244141,0.0320435,0.0088501,0.0241089,-0.00793457,0.0250244,-0.0119019
39,3,0.0491333,0.0250244,0.0195312,0.0088501,0.0177002,0.0192261,0.0119019,0.032959,0.0149536,0.0314331,-0.00823975,0.0115967,-0.0152588
39,4,0.0195312,0.0415039,0.0244141,0.027771,0.0216675,0.0161743,-0.0234985,0.00183105,0.0231934,0.0100708,-0.0186157,0.0210571,-0.00335693
40,0,0.0256348,0.0289917,0.0180054,0.0305176,0.0137329,0.017395,-0.0125122,0.0473022,0.0305176,0.0088501,-0.0234985,0.045166,0.00396729
40,1,0.0286865,0.0396729,0.0222778,0.0268555,0.027771,0.0186157,-0.00671387,0.0521851,0.0238037,0.0250244,-0.0393677,0.0341797,0.0567627
40,2,0.03479,0.0253296,0.0271606,0.0201416,0.0167847,0.0149536,0.00366211,0.0210571,-0.0210571,-0.00183105,-0.0250244,0.00183105,0.0137329
40,3,0.043335,0.0195312,-0.0311279,0.0305176,0.0247192,0.0289917,0.000610352,0.00762939,0.00549316,0.017395,-0.0305176,0.0582886,0.0350952
40,4,0.0357056,0.0372314,0.0411987,0.0369263,0.0189209,0.0250244,0.00976562,0.00823975,0.015564,0.0198364,-0.015564,0.0418091,0.0314331
41,0,0.0491333,0.03479,0.0115967,0.0244141,0.0189209,0.0149536,0.0128174,0.0131226,0.0137329,0.0170898,-0.0384521,0.0271606,0.0283813
41,1,0.0448608,0.0250244,0.0372314,0.0421143,0.00976562,0.0186157,0.0363159,0.0289917,0.00610352,-0.00488281,-0.0299072,0.0427246,0.0137329
41,2,0.0604248,0.0335693,0.0250244,0.0402832,0.0146484,-0.00701904,-0.0137329,0.043335,0.0305176,0.0186157,0.0128174,0.0405884,0.0112915
41,3,0.0280762,0.0402832,0.0311279,0.022583,0.0140381,0.00274658,0,0.0436401,0.0119019,0.0210571,-0.0195312,0.027771,0.00335693
41,4,0.00366211,0.0402832,0.0299072,0.0466919,0.0216675,0.00946045,-0.00244141,0.00671387,0.000305176,-0.0241089,0.0335693,0.0222778,0.0152588
42,0,0.0256348,0.0357056,0.0250244,0.00640869,0.0115967,0.020752,0.000305176,0.0137329,0.00183105,0.012207,-0.0354004,-0.0228882,0.0299072
42,1,0.0119019,0.0335693,0.0402832,0.0146484,0.0234985,0.072937,0.00946045,0.0320435,0.027771,0.0106812,-0.0357056,0.0219727,0.0231934
42,2,0.012207,0.0476074,0.0552368,0.0408936,-0.00976562,0.0112915,0.0106812,0.0283813,0.00762939,0.0115967,-0.0183105,0.0100708,0.0509644
42,3,0.0152588,0.0253296,0.0457764,0.039978,0.0350952,0.00915527,0.00366211,0.0204468,0.0238037,-0.00579834,-0.0308228,0.0366211,0.057373
42,4,0.032959,0.027771,0.0482178,0.0228882,0.0292969,-0.0177002,0.0134277,-0.00183105,0.0115967,0.0134277,-0.00152588,0.0228882,0.0311279
43,0,0.0256348,0.0292969,0.012207,0.0247192,0.0100708,0.0164795,-0.00640869,0.0265503,0.0115967,0.0088501,-0.0372314,0.022583,0.0360107
43,1,0.0253296,0.0262451,0.0158691,0.0088501,0.0134277,0.0161743,0.0335693,0.0341797,0.0216675,0.00152588,-0.0201416,0.0271606,0.0466919
43,2,0.0274658,0.0314331,-0.0152588,0.0314331,0.0250244,-0.00488281,0.0231934,-0.020752,0.0695801,0.0149536,-0.032959,0.0430298,0.0576782
43,3,0.0274658,0.0357056,0.020752,0.0201416,0.0280762,0.0262451,0.0323486,-0.0167847,0.0161743,0.0680542,-0.0418091,0.0366211,0.0488281
43,4,0.0384521,0.038147,0.0271606,0.0204468,0.017395,0.010376,0.0256348,0.00213623,0.0268555,0.00671387,-0.0283813,0.0396729,0.0668335
44,0,0.0405884,0.0296021,0.0219727,0.0927734,0.0241089,0.0268555,0.0216675,-0.00427246,0.00946045,-0.00152588,-0.0250244,0.0259399,0.0387573
44,1,0.106201,0.0390625,0.0296021,0.0292969,0.0344849,0.0140381,0.00183105,0.0335693,0.00244141,-0.0497437,-0.039978,0.03479,0.0531006
44,2,0.0201416,0.0350952,0.0335693,0.043335,0.0280762,0.0161743,0.0485229,0.00366211,0.00549316,0.00976562,-0.032959,0.0366211,0.0460815
44,3,0.0393677,0.0579834,0.0274658,0.0280762,0.0317383,0.0115967,0.0476074,-0.00335693,0.0314331,0.0198364,-0.0268555,-0.00183105,0.0552368
44,4,0.0372314,0.0418091,0.0292969,0.0262451,0.0326538,0.0576782,0.0439453,0.00274658,-0.00793457,0.0143433,-0.0247192,0.0323486,0.0119019
45,0,0.0289917,0.0262451,0.0238037,0.0292969,0.0128174,0.0177002,0.0274658,0.00701904,0.0238037,0.012207,-0.0286865,0.038147,0.0195312
45,1,0.0402832,0.0231934,-0.0192261,0.0375366,0.0332642,0.0775146,0.0161743,0.0112915,-0.00488281,0.0210571,-0.022583,0.043335,0.0427246
45,2,0.0234985,0.0259399,0.039978,0.0198364,0.0292969,0.0259399,0.00549316,0.027771,0.00915527,0.000915527,-0.0311279,0.0286865,0.0585938
45,3,0.0393677,0.022583,0.0494385,0.0326538,0.0183105,0.0164795,-0.0186157,0.0408936,0.015564,0.0161743,-0.0326538,0.0305176,0.00396729
45,4,0.0253296,0.0143433,0.0247192,0.0396729,0.00244141,0.0234985,-0.00762939,0.0866699,0.0146484,0.0216675,-0.0259399,0.0415039,0.0271606
46,0,0.0152588,0.0219727,0.0216675,0.017395,0.020752,0.017395,0.00640869,0.0491333,0.00793457,0.0314331,-0.00762939,0.0201416,0.0219727
46,1,0.0119019,-0.00854492,0.032959,0.0274658,0.0878906,0.0180054,0.00518799,0.0457764,0.0109863,0.0405884,-0.0216675,0.0247192,0.0170898
46,2,0.0250244,0.0152588,0.0210571,0.0250244,0.0445557,0.0289917,-0.0204468,0.032959,0.0302124,0.0302124,-0.027771,0.0622559,0.0100708
46,3,0.0506592,0.0274658,0.0292969,0.0137329,0.0415039,0.027771,-0.0143433,0.0363159,0.0134277,0.0292969,-0.0280762,0.027771,-0.00823975
46,4,0.00396729,0.0369263,0.0344849,-0.0253296,0.0183105,0.0256348,-0.0228882,0.0222778,0.0195312,0.0656128,0.0143433,0.0302124,-0.032959
47,0,0.0393677,0.0283813,0.038147,-0.0140381,0.0213623,0.0350952,0.0534058,0.010376,0.0170898,0.0323486,-0.0115967,0.0292969,0.012207
47,1,0.0332642,0.0305176,0.0326538,-0.000915527,0.0259399,0.0234985,0.00854492,0.00183105,0.00335693,-0.00976562,-0.0201416,0.0204468,0.022583
47,2,0.0717163,0.0170898,0.0201416,0.0320435,0.043335,0.00671387,0.015564,0.0308228,0.00427246,0.0259399,-0.0186157,0.0192261,0.0317383
47,3,0.032959,0.0616455,0.0195312,0.0341797,0.0213623,0.0204468,0.0201416,-0.0146484,0.0119019,0.0216675,-0.0338745,0.0396729,0.0387573
47,4,0.0195312,0.0305176,0.0708008,0.0363159,0.0161743,0.038147,0.0354004,0.0238037,0.0161743,0.00976562,-0.0189209,0.0201416,0.0326538
48,0,0.039978,0.022583,0.0292969,0.00183105,0.0253296,0.0350952,0.0146484,-0.00610352,-0.00183105,0.0210571,-0.0201416,0.0216675,0.038147
48,1,0.0305176,0.0344849,0.0219727,0.0360107,0.0247192,0.0320435,0.022583,-0.0131226,0.0161743,0.0357056,-0.0106812,0.0265503,0.0979614
48,2,0.0302124,0.0250244,0.0183105,0.0366211,0.0384521,0.0631714,0.0445557,-0.00518799,0.0576782,0.0216675,-0.0357056,0.0552368,0.0540161
48,3,0.0137329,0.0238037,0.0311279,0.0250244,0.0494385,0.0289917,0.0363159,-0.0128174,0.0201416,0.0357056,-0.0219727,-0.0265503,0.0454712
48,4,0.0238037,0.020752,0.0378418,0.022583,0.00427246,0.0289917,0.0344849,-0.00183105,0.0213623,0.0454712,-0.03479,0.00976562,0.0405884
49,0,0.0189209,0.0292969,0.0485229,0.0253296,0.0268555,0.0244141,0.045166,-0.0119019,0.0219727,0.062561,-0.0238037,0.0186157,0.039978
49,1,0.000915527,0.0189209,0.0592041,0.0134277,0.0231934,0.0320435,0.0256348,-0.0427246,0.0164795,-0.0201416,-0.0213623,0.0390625,0.0906372
49,2,0.00549316,0.0231934,0.0689697,0.0296021,0.0442505,0.0280762,0.0177002,-0.0369263,0.0192261,0.0357056,-0.0320435,-0.00335693,0.0585938
49,3,0.000610352,0.032959,0.0396729,0.027771,0.03479,0.0735474,0.0439453,0.00457764,0.0213623,0.0463867,-0.0137329,0.0119019,0.0317383
49,4,0.0247192,0.0305176,0.0598145,0.0866699,0.0360107,0.0442505,-0.0109863,-0.00701904,0.0259399,0.0506592,-0.0283813,0.00854492,0.0393677
50,0,0.0561523,0.0137329,0.0515747,-0.0326538,0.0314331,0.0302124,0.0683594,0.012207,0.0320435,0.0500488,-0.0247192,0.0195312,0.0476074
50,1,0.00701904,0.0189209,0.0332642,0.0469971,0.032959,0.0323486,0.0231934,-0.00488281,0.0231934,0.03479,-0.0302124,0.0012207,0.0137329
50,2,0.0140381,0.0216675,0.0289917,0.0350952,0.027771,0.0411987,0.000915527,0.057373,0.032959,0.0415039,-0.0650024,0.0216675,0.00640869
50,3,0.0296021,0.0564575,0.00488281,0.0250244,0.0411987,0.0372314,-0.00854492,0.0674438,0.0311279,0.0354004,-0.0189209,-0.020752,0.0100708
50,4,0.0772095,0.0308228,0.00396729,0.0283813,0.0387573,0.0274658,-0.0323486,0.0570679,0.0164795,0.0448608,-0.010376,0.0280762,0.0158691
51,0,0.0326538,0.0109863,0.03479,0.0372314,0.0219727,0.0201416,0.0259399,0.032959,0.0341797,0.0201416,-0.0140381,0.0244141,0.0164795
51,1,0.0396729,0.0280762,0.00274658,0.0445557,0.0418091,0.0302124,0.0262451,0.0375366,0.0161743,0.03479,-0.0170898,0.0219727,0.0259399
51,2,0.0219727,0.0231934,0.00915527,0.0320435,0.0360107,-0.000915527,0.0363159,0.0186157,0.0167847,0.0241089,-0.012207,0.0302124,-0.0378418
51,3,0.0115967,0.00854492,0.0262451,0.0296021,0.0479126,0.0189209,0.0299072,0.0250244,0.0109863,0.072937,-0.00488281,0.0140381,0.0439453
51,4,-0.0195312,0.0131226,0.0305176,-0.00335693,0.0259399,0.0256348,0.0274658,0.0158691,0.0247192,0.0332642,0.00610352,0.020752,0.0576782
52,0,0.0088501,0.0256348,0.0115967,0.0228882,0.0363159,0.0317383,0.0320435,0.0177002,0.0222778,-0.00762939,-0.0265503,0.0265503,0.0524902
52,1,0.0112915,0.0250244,0.0183105,0.0415039,0.050354,0.0326538,0.0445557,0.000915527,0.0238037,-0.0210571,-0.0164795,0.0241089,0.0454712
52,2,-0.00305176,0.0222778,-0.0167847,0.0311279,0.0384521,0.0454712,0.0491333,0.00610352,0.050354,-0.00488281,-0.0213623,0.0268555,0.0405884
52,3,0.0326538,0.0247192,-0.00305176,0.0222778,0.0354004,0.00305176,0.03479,0.0314331,0.0201416,-0.0161743,-0.0152588,0.0326538,0.0405884
52,4,0.0280762,-0.0271606,0.0363159,0.017395,0.0164795,0.0213623,0.0326538,-0.00152588,0.0109863,-0.00762939,-0.0213623,0.0299072,0.0393677
53,0,-0.00396729,0.0375366,0.0396729,0.00518799,0.0268555,0.0405884,0.0344849,0.0134277,0.0210571,0.00427246,-0.0537109,0.0372314,0.0271606
53,1,0.00701904,0.0354004,0.0238037,0.017395,0.101929,0.0402832,0.0170898,-0.0170898,-0.00915527,-0.00457764,-0.0137329,0.00488281,0.0299072
53,2,0.0152588,0.00244141,-0.00671387,0.0308228,0.0354004,0.0820923,0.0140381,0.0488281,0.0500488,-0.00457764,-0.0115967,-0.038147,0.010376
53,3,0.0088501,0.0292969,0.032959,0.0289917,0.0619507,0.0411987,0.012207,0.0332642,0.00274658,0.00305176,-0.0228882,-0.00335693,0.0125122
53,4,0.00427246,0.0213623,0.0445557,0.0436401,0.0228882,0.0210571,0.00213623,0.0201416,0.0531006,-0.00610352,-0.00701904,0.0204468,0.0158691
54,0,0.00976562,0.00762939,0.0518799,0.0262451,0.00396729,0.0299072,0.0210571,0.0512695,0.0167847,0.0482178,-0.0228882,0.0115967,-0.0213623
54,1,0.00366211,0.00549316,0.0326538,0.0579834,0.0183105,0.032959,-0.00183105,0.0427246,0.0143433,0.00579834,-0.00183105,0.00762939,0.00915527
54,2,0.0088501,0.0234985,0.0320435,0.0299072,-0.0201416,0.0344849,0.0204468,0.105286,0.0143433,-0.0198364,-0.0109863,0.0134277,0.0137329
54,3,0.0592041,0.0109863,0.0341797,-0.0222778,0.0311279,0.0332642,0.0378418,0.0531006,0.0158691,0.00549316,-0.0344849,0.0332642,0.0161743
54,4,0.0247192,0.0289917,0.0296021,0.0256348,0.0186157,0.0369263,0.0357056,0.038147,0.010376,0.00610352,-0.010376,0.0268555,0.0158691
55,0,0.00823975,0.0198364,0.00183105,0.0250244,0.0332642,0.0231934,0.0357056,0.0088501,0.0341797,0.00762939,-0.0366211,0.00915527,0.0463867
55,1,0.0161743,-0.00305176,0.0192261,0.0241089,0.0192261,0.0488281,0.0332642,0.0119019,0.0323486,-0.00793457,-0.0335693,0.0195312,0.0283813
55,2,0.0112915,0.010376,-0.0244141,0.0192261,0.0457764,0.0811768,0.0180054,-0.00152588,0.0256348,-0.00915527,-0.0283813,0.0146484,0.0305176
55,3,0.0299072,0.0241089,-0.00488281,0.0234985,0.03479,0.0125122,0.038147,0.0201416,0.0515747,-0.000610352,-0.0384521,0.0299072,0.0314331
55,4,0.0402832,0.0250244,0.0747681,0.0320435,0.0344849,0.0671387,0.0637817,0.0195312,0.0253296,-0.00976562,-0.020752,0.0195312,0.0485229
56,0,0.015564,0.0231934,0.0308228,0.022583,0.0219727,0.0378418,0.0326538,0.00305176,0.0299072,-0.0183105,-0.0341797,0.03479,0.0439453
56,1,0.0192261,0.0186157,0.0418091,0.0387573,0.0692749,0.022583,0.0405884,0.0143433,0.0430298,-0.000305176,-0.027771,0.038147,0.0256348
56,2,0.0289917,0.017395,0.0238037,0.0137329,0.0430298,0.0289917,-0.00183105,0.0131226,0.0201416,0.0274658,-0.0317383,0.0405884,0.0509644
56,3,0.0283813,0.0219727,0.0268555,0.0186157,0.0332642,0.0198364,0.0469971,0.0280762,0.0161743,-0.00732422,-0.0204468,0.0311279,0.0366211
56,4,0.0357056,0.000610352,0.0146484,0.0344849,0.0393677,0.0259399,0.0567627,0.0430298,0.000305176,0.010376,-0.0115967,0.0210571,0.0323486
57,0,0.0189209,0.0167847,0.0323486,0.0378418,0.0393677,0.0250244,0.0537109,0.0250244,0.0216675,0.010376,-0.0759888,0.0115967,0.0265503
57,1,0.010376,0.00579834,0.0186157,0.0320435,0.0186157,0.0183105,0.0256348,0.0201416,0.0256348,0.00793457,-0.027771,-0.00610352,0.0183105
57,2,-0.0119019,0.0280762,0.03479,0.0332642,0.0131226,0.038147,0.0338745,0.0253296,0.0265503,0.00427246,-0.0247192,-0.0424194,0.0216675
57,3,0.00244141,0.0100708,0.039978,0.0280762,0.0296021,0.0247192,0.0369263,0.00610352,0.00640869,0.0115967,-0.0186157,-0.0296021,-0.00610352
57,4,0.000915527,0.0149536,0.0231934,0.0604248,0.00823975,0.0283813,0.0439453,0.0506592,0.0192261,0.012207,0.00213623,-0.00854492,0.00396729
58,0,0.00488281,0.0198364,0.0314331,0.0360107,0.0241089,0.032959,0.0164795,0.0582886,0.0311279,0.00579834,-0.00671387,-0.0335693,0.00213623
58,1,0.0131226,0.00640869,-0.0561523,0.0222778,0.0332642,0.0320435,0.0515747,0.0473022,0.0177002,0.0213623,-0.0228882,0.0140381,0.00915527
58,2,0.00854492,0.00732422,0.0115967,0.0372314,0.027771,0.0149536,0.0167847,0.0369263,-0.00549316,0.00305176,-0.0201416,0.0469971,0.0125122
58,3,-0.0445557,-0.0131226,0.00976562,0.0430298,0.0268555,0.0302124,0.0128174,0.0479126,0.0234985,-0.00335693,-0.057373,0.00610352,0.0262451
58,4,-0.0170898,0.0265503,0.00640869,0.0534058,0.0335693,0.0210571,0.0088501,0.0439453,0.010376,0.0445557,-0.0100708,0.0189209,0.0244141
59,0,0,0.0180054,0.0378418,0.0344849,0.0167847,0.0280762,0.0253296,0.038147,0.0177002,0.0234985,0.00701904,0.0201416,0.0195312
59,1,0.00183105,0.0189209,0.0222778,0.0286865,0.0274658,0.0253296,0.0299072,0.0216675,-0.0344849,0.0311279,-0.0177002,0.0445557,0.0210571
59,2,0.0244141,0.0146484,0.0238037,0.0195312,0.0302124,0.0460815,0.0088501,0.0369263,0.027771,0.0424194,-0.0234985,0.0280762,0.0195312
59,3,0.017395,0.0198364,0.0317383,0.0271606,0.0161743,0.0198364,0.0396729,0.0552368,0.0170898,0.0195312,-0.00762939,0.0695801,0.0372314
59,4,0.0170898,0.00823975,0.0170898,0.0439453,0.0314331,0.032959,0.0354004,0.0360107,0.0512695,-0.00732422,-0.0247192,0.0308228,0.0396729
60,0,0.022583,0.0088501,0.0137329,0.020752,0.0247192,0.0308228,0.0390625,0.0219727,0.0302124,0.00305176,-0.0109863,0.0134277,0.0448608
60,1,0.0167847,0.0119019,0.0210571,0.0170898,0.0265503,0.050354,0.0314331,0.0186157,0.00976562,0.0137329,-0.0100708,0.0448608,0.0283813
60,2,0.0186157,0.0262451,-0.00213623,0.0283813,0.0283813,0.017395,0.010376,-0.00305176,0.015564,0.0219727,0.0109863,0.0411987,0.0518799
60,3,0.0183105,0.0128174,0.010376,0.0305176,0.0183105,0.0265503,-0.00793457,-0.00366211,0.0195312,-0.0402832,-0.0149536,0.0311279,0.0698853
60,4,0.022583,0.0177002,0.0216675,0.0323486,-0.0177002,0.0442505,0.0201416,-0.0506592,0.0244141,0.0164795,-0.0271606,0.0296021,0.0604248
61,0,0.0326538,0.0262451,0.0241089,0.0292969,0.0268555,0.027771,0.0338745,0.0125122,0.0195312,0.0317383,-0.0299072,0.00396729,0.057373
61,1,0.00305176,0.015564,0.0231934,0.0311279,0.0219727,0.0427246,0.0497437,-0.00518799,0.0204468,0.0808716,0.00183105,-0.00427246,0.0521851
61,2,0.00610352,0.0134277,0.0344849,0.0152588,0.0186157,0.0363159,0.0234985,-0.00915527,0.0234985,0.0323486,-0.00762939,-0.0183105,0.00244141
61,3,0.0164795,0.020752,0.0219727,-0.020752,0.027771,0.0280762,0.0662231,0.0238037,0.0418091,0.0244141,-0.017395,0.00427246,0.00274658
61,4,0.00671387,0.0198364,0.017395,0.0308228,0.0216675,0.0323486,0.0631714,0.0616455,0.0164795,0.0219727,-0.0088501,0.00671387,-0.00366211
62,0,0.0213623,0.00518799,0.00671387,0.0259399,0.0210571,0.0485229,0.0421143,0.10437,0.0140381,0.032959,-0.0125122,0.00793457,0.0183105
62,1,0.0186157,0.0634766,0.000915527,0.0271606,0.0405884,0.0372314,0.0210571,0.0708008,0.0161743,0.0106812,-0.00915527,0.0262451,0.0115967
62,2,0.0292969,0.0247192,-0.000915527,0.0262451,0.0143433,-0.027771,0.0213623,0.0485229,0.0543213,0.0338745,-0.0247192,0.015564,0.015564
62,3,0.0143433,0.0375366,0.00549316,0.0186157,-0.0177002,0.0228882,0.0219727,0.015564,0.00488281,0.0152588,-0.0234985,0.000305176,0.0341797
62,4,-0.00427246,0.0137329,0.0164795,0.0186157,0.0250244,0.0393677,0.0183105,0.0372314,0.0271606,0.015564,-0.0256348,0.00823975,0.0479126
63,0,0.0283813,0.0195312,0.015564,0.0241089,0.00823975,0.0286865,0.0201416,0.0323486,0.0131226,-0.0195312,-0.022583,-0.00793457,0.093689
63,1,0.0119019,0.0256348,0.0131226,0.0213623,0.0280762,0.0137329,0.0296021,0.0341797,0.0366211,0.0146484,-0.0299072,0.00976562,0.0210571
63,2,0.00396729,0.0460815,0.0177002,0.0299072,0.0167847,0.0286865,0.0283813,-0.00274658,0.0256348,0.0146484,-0.0112915,-0.00457764,0.0299072
63,3,0.0012207,0.00946045,0.0158691,-0.0170898,0.0308228,0.0335693,0.0915527,0.0231934,0.0268555,-0.0256348,-0.0192261,0.0253296,-0.00579834
63,4,0.0222778,0.0213623,0.0149536,0.00976562,-0.0210571,0.0375366,0.0466919,0.0222778,0.0317383,0.0204468,-0.0289917,0.0198364,0.0167847
64,0,0.0198364,0.0177002,-0.00335693,0.00976562,0.0131226,0.027771,0.0326538,0.0253296,0.0302124,0.00823975,-0.0253296,0.0436401,0.00274658
64,1,0.0177002,0.067749,0.0012207,0.0152588,0.0836182,0.0259399,0.0283813,0.0454712,0.0375366,-0.00915527,-0.0292969,0.027771,0.0183105
64,2,0.0088501,0.0387573,0.0183105,0.0210571,0.0180054,0.0396729,0.0170898,0.032959,0.0228882,0.0189209,-0.0222778,-0.0012207,0.00183105
64,3,0.0698853,0.022583,0.0256348,0.0628662,0.010376,0.0335693,0.0363159,0.0427246,0.0341797,0.0198364,-0.0402832,0.0231934,0.0305176
64,4,0.0201416,0.0234985,0.0494385,0.0222778,0.0265503,0.043335,0.0256348,0.0378418,0.0167847,0.0350952,-0.0234985,-0.000305176,0.0210571
65,0,0.0234985,0.0137329,0.0131226,0.017395,0.0170898,0.0317383,0.0448608,0.0354004,0.03479,0.0350952,-0.0149536,0.0177002,0.0296021
65,1,0.0189209,0.0161743,0.0299072,0.0143433,0.0250244,0.0390625,0.0506592,0.0177002,0.00152588,0.0234985,-0.0265503,0.0378418,0.00183105
65,2,0.0259399,0.0112915,0.0115967,-0.00427246,0.0335693,0.0204468,0.0616455,0.0341797,0.0167847,0.0274658,-0.0158691,0.0088501,0.015564
65,3,0.0125122,0.0131226,0.0128174,-0.0128174,0.0350952,0.0473022,0.0271606,0.0350952,0.0216675,0.0454712,-0.0192261,0.0241089,0.00915527
65,4,0.00671387,0.0396729,0.0201416,0.0201416,0.0189209,0.0292969,0.0628662,0.0213623,0.0268555,0.0628662,-0.0250244,0.00427246,-0.0579834
66,0,0.0241089,0.00305176,0.027771,0.0262451,0.0161743,0.0274658,0.0741577,0.0280762,0.0146484,0.0250244,-0.0131226,0.0128174,-0.0509644
66,1,0.0213623,0.0146484,0.0918579,0.0204468,0.0170898,0.0167847,0.0674438,0.0360107,-0.0234985,0.0265503,-0.0161743,0.0201416,-0.0137329
66,2,0.0134277,0.0201416,0.00762939,0.0286865,0.0793457,0.0363159,0.0479126,0.0286865,0.0335693,0.0366211,-0.0488281,0.00640869,0.0128174
66,3,0.0390625,-0.0012207,0.0164795,0.00915527,0.0363159,0.0335693,0.0646973,0.0454712,0.038147,0.0350952,-0.027771,-0.0350952,0.0177002
66,4,0.0204468,0.0262451,0.00915527,0.0146484,0.0189209,0.0302124,0.0494385,0.0372314,0.0314331,0.0289917,-0.0228882,0.0183105,0.0137329
67,0,0.0134277,0.00640869,-0.0335693,0.00793457,0.022583,0.0802612,0.0360107,0.0436401,-0.0180054,0.0204468,-0.0238037,0.0289917,-0.0012207
67,1,0.0274658,0.0250244,0.0442505,0.00732422,0.00396729,0.0238037,0.00793457,0.0576782,0.0247192,0.0308228,-0.0131226,0.0222778,0.000305176
67,2,0.0393677,0.00335693,0.0137329,-0.0271606,0.0170898,0.0262451,0.00854492,0.0588989,0.0323486,0.022583,-0.0198364,0.020752,0.00671387
67,3,0.0283813,0.00244141,0.012207,0.032959,0.0125122,0.0234985,0.00640869,0.0479126,0.0189209,0.0280762,-0.0106812,0.0323486,0.0100708
67,4,0.0137329,0.0158691,0,0.0231934,0.0106812,0.0738525,0.0149536,0.0299072,0.032959,0.0561523,-0.0149536,0.03479,-0.015564
68,0,0.0222778,0.0137329,0.0161743,0.0210571,0.0280762,0.0231934,0.00610352,0.0909424,0.0283813,0.0442505,-0.0491333,0.0170898,-0.0143433
68,1,0.020752,0.0204468,0.00213623,0.0210571,0.0134277,0.0390625,0.0317383,0.0204468,0.0244141,0.0411987,-0.0158691,0.0396729,0.000305176
68,2,0.010376,0.00427246,0.010376,0.0216675,0.0344849,0.0268555,0.0201416,0.0344849,0.039978,0.0448608,-0.0778198,0.0253296,0.00732422
68,3,0.0354004,0.0183105,0.0198364,0.0167847,0.0238037,0.0234985,0.00457764,0.0213623,0.0332642,-0.0140381,-0.0177002,0.0189209,0.0210571
68,4,0.0430298,0.0125122,0.00396729,0.0100708,0.0152588,0.0439453,0.0314331,0.0296021,0.0262451,0.0415039,-0.0378418,0.0134277,0.0695801
69,0,0.0430298,0.0299072,0.0646973,0.0280762,0.00549316,0.0137329,0.0308228,0.039978,0.020752,0.0161743,-0.0183105,0.0112915,0.0134277
69,1,0.0244141,0.00518799,0.0198364,0.0149536,0.0302124,0.0192261,0.0756836,0.010376,0.0219727,0.067749,-0.0228882,0.0158691,0.0167847
69,2,0.0189209,0.06073,0.0234985,0.0177002,-0.0204468,0.020752,0.0357056,0.0125122,0.0314331,0.0375366,-0.0320435,0.0125122,0.0109863
69,3,0.0360107,0.0119019,0.0219727,0.00488281,0.0241089,0.0131226,0.0442505,0.0231934,0.0939941,0.0152588,-0.0286865,0.0283813,0.0311279
69,4,0.0436401,-0.00732422,0.0146484,0.00915527,0.0308228,0.0189209,-0.0115967,0.0283813,0.0299072,0.0210571,-0.0354004,0.00610352,0.0213623
70,0,0.0210571,0.0213623,-0.0192261,0.0106812,0.0161743,0.0241089,0.0238037,-0.000610352,0.0289917,0.0198364,-0.0274658,0.0128174,0.0296021
70,1,0.0231934,0.0137329,0.0134277,0.0128174,-0.00915527,0.0259399,0.0357056,0.00671387,0.0860596,0.03479,-0.0265503,0.0247192,0.0210571
70,2,0.0149536,0.0112915,0.0454712,0.00427246,0.0131226,0.0268555,0.0204468,0.00274658,0.0149536,0.0469971,-0.0311279,0.0234985,0.0289917
70,3,0.0283813,0.0183105,0.055542,0.027771,0.0170898,0.0149536,0.043335,0.067749,0.0354004,0.022583,-0.0549316,0.020752,0.0308228
70,4,0.020752,-0.0088501,0.0292969,0.0109863,0.0201416,0.0222778,0.0357056,0.0286865,0.0509644,0.0299072,-0.0274658,0.0088501,0.0439453
71,0,0.00152588,0.0210571,0.0268555,0.0396729,0.0100708,0.0198364,0.0341797,0.0283813,0.0299072,0.0112915,-0.0354004,0.010376,0.038147
71,1,-0.0012207,0.00701904,0.0186157,0.0158691,0.0183105,-0.00274658,0.0350952,0.0302124,0.0338745,0.0247192,-0.0302124,0.0177002,-0.00305176
71,2,0.017395,0.0262451,0.00366211,-0.00244141,0.00274658,0.0646973,0.0280762,0.038147,-0.0195312,0.0366211,-0.0286865,0.0253296,0.0274658
71,3,0.0350952,0.0137329,0,0.00946045,0.0183105,0.0186157,-0.0119019,0.0344849,0.0384521,0.0424194,-0.0234985,0.0274658,0.0250244
71,4,-0.00793457,0.0259399,0.0158691,0.0653076,0.0195312,0.0100708,-0.00915527,0.0238037,0.0259399,0.0360107,-0.0201416,0.0183105,-0.0128174
72,0,0.0357056,0.0125122,0.00152588,0.00457764,0.0186157,0.0262451,0.0274658,0.0180054,0.0350952,0.0274658,-0.0268555,0.00823975,0.0244141
72,1,0.0762939,0.0137329,-0.012207,0.0088501,0.00732422,0.017395,0.0125122,0.0335693,0.0259399,0.0509644,-0.0354004,0.00854492,0.00793457
72,2,0.0234985,0.00640869,-0.0231934,0.00305176,0.0411987,0.0195312,0.0201416,0.0918579,0.0244141,0.0372314,-0.0515747,0.020752,0.00762939
72,3,0.0415039,0.0341797,-0.0195312,0.0350952,0.0259399,0.0299072,0.0213623,0.0286865,0.0253296,0.0473022,-0.0262451,0.0186157,-0.0289917
72,4,0.0317383,0.0177002,-0.0576782,0.0213623,0.00793457,0.0543213,0.00701904,0.0442505,0.0479126,0.0183105,-0.0204468,0.0479126,0.017395
73,0,0.0265503,0.0323486,-0.0512695,0.0241089,-0.000915527,0.0460815,0.0305176,0.0384521,0.0177002,0.0531006,-0.0137329,0.0326538,0.0115967
73,1,0.0259399,0.0161743,-0.000915527,0.00549316,0.0128174,0.0430298,0.0363159,0.038147,0.0518799,0.0393677,-0.0289917,0.0238037,0.00976562
73,2,0.0405884,0.0143433,0.012207,0.00244141,0.022583,0.0204468,0.0421143,0.0250244,0.0314331,0.0515747,-0.0259399,0.0238037,0.0189209
73,3,0.0784302,0.038147,0.0219727,0.055542,0.0253296,0.0354004,0.0201416,0.0402832,0.03479,0.0350952,-0.0375366,-0.00793457,-0.0216675
73,4,0.0112915,0.0106812,0.0274658,-0.00854492,0.027771,0.012207,0.0259399,0.032959,0.045166,0.0354004,-0.0341797,0.0198364,0.0140381
74,0,0.0250244,0.0143433,0.00183105,0.0115967,0.0234985,0.032959,0.0335693,0.03479,0.0268555,-0.0109863,-0.0241089,0.027771,0.0411987
74,1,0.0250244,0.0308228,0.0170898,0.0134277,0.00457764,0.0366211,0.0213623,0.0164795,-0.000610352,0.0280762,-0.0415039,0.0427246,0.0106812
74,2,0.0332642,-0.0247192,0.0326538,0.0131226,-0.00732422,0.0299072,0.0286865,0.0177002,0.0335693,0.0250244,-0.0213623,0.0152588,0.0088501
74,3,0.0161743,0.0360107,0.0234985,0.00854492,0.0402832,0.0180054,0.0299072,0.0317383,0.0299072,0.0228882,-0.0228882,0.0167847,0.0268555
74,4,-0.0161743,0.0271606,0.00427246,0.0186157,0.0442505,0.020752,0.039978,0.0253296,0.0192261,0.0213623,-0.0161743,0.0259399,0.0360107
75,0,0.0192261,0.00976562,0.0146484,0.0164795,0.0177002,0.0180054,0.0524902,0.0109863,0.03479,0.0152588,-0.015564,0.0323486,0.0375366
75,1,0.0259399,0.0286865,-0.0247192,0.0195312,0.0311279,0.0109863,0.0390625,0.0238037,0.0973511,0.032959,-0.0439453,0.0857544,0.0305176
75,2,0.010376,0.0164795,0.0180054,0.00427246,0.0280762,0.0152588,0.0271606,0.03479,0.0332642,0.0213623,-0.0344849,0.0305176,0.0314331
75,3,0.0219727,0.0262451,0.000305176,-0.00335693,0.0183105,0.0109863,0.027771,0.00823975,0.0161743,0.0259399,-0.0302124,0.0857544,0.0158691
75,4,0.0323486,0.0323486,0.0402832,-0.00671387,0.0317383,0.0195312,0.0170898,0.0268555,0.0256348,0.0491333,-0.0332642,0.0384521,0.0265503
76,0,0.0219727,0.0234985,-0.0213623,0.015564,0.0106812,0.0323486,0.00701904,0.0308228,0.0222778,0.0445557,-0.0234985,0.0466919,0.0189209
76,1,0.0326538,0.000305176,0.0344849,0.0253296,0.0216675,0.0405884,0.00762939,0.0143433,0.0146484,0.0231934,-0.0292969,0.0338745,0.0323486
76,2,0.0335693,0.0198364,0.0152588,0.0128174,0.00305176,0.00610352,0.0964355,0.0238037,0.0292969,0.00366211,-0.0143433,0.0424194,0.0320435
76,3,0.0350952,0.012207,0.0192261,0.00640869,0.0161743,0.0201416,0.0195312,0.0158691,0.0421143,0.0302124,-0.0274658,0.0289917,0.067749
76,4,0.0320435,0.022583,0.0698853,0.00976562,0.0167847,0.00915527,0.0506592,0.000610352,0.0323486,0.00915527,-0.0357056,0.0262451,0.0357056
77,0,0.0524902,-0.022583,0.0088501,0.0119019,-0.0149536,0.0134277,0.039978,-0.0473022,0.00640869,0.0250244,-0.0378418,0.010376,0.0384521
77,1,0.0265503,0.0186157,0.0265503,0.00488281,0.00762939,0.0143433,0.0411987,0.0112915,0.0341797,0.038147,-0.0286865,0.00732422,0.0210571
77,2,0.0146484,0.0363159,0.0134277,0.0109863,-0.00518799,0.00427246,0.032959,0.00213623,0.0195312,0.0289917,-0.0408936,0.0247192,0.0177002
77,3,0.0189209,0.0344849,0.0375366,0.0131226,0.0158691,0.0289917,0.0125122,-0.0189209,0.0640869,0.0320435,-0.0393677,0.0152588,0.0375366
77,4,0.0216675,0.0204468,-0.0137329,0.0119019,0.0152588,0.00793457,0.0283813,0.0158691,0.0689697,0.038147,-0.0457764,0.022583,0.0338745
78,0,0.0228882,0.0341797,0.027771,0.00610352,0.00701904,0.012207,0.0274658,0.0650024,0.0283813,0.0317383,-0.0360107,0.0271606,0.0238037
78,1,0.0167847,0.0344849,0.078125,0.00335693,0.00701904,0.00457764,0.00976562,0.0521851,0.0320435,0.0445557,-0.0332642,0.0238037,0.100403
78,2,0.0201416,0.0604248,0.0234985,0.012207,-0.0344849,0.0170898,0.00640869,0.0494385,0.0375366,0.0320435,-0.0305176,0.0228882,0.0430298
78,3,0.0402832,0.0125122,0.0292969,0.0308228,-0.00457764,0.0198364,0.0140381,0.0305176,0.0299072,0.0311279,-0.00793457,0.0357056,0.03479
78,4,-0.00396729,0.0341797,0.0387573,-0.0738525,0.0387573,0.00518799,-0.0723267,0.0311279,0.0231934,0.0289917,-0.0308228,0.0387573,0.0341797
79,0,0.0363159,0.0405884,0.0421143,0.00274658,0.0192261,-0.00396729,0.043335,0.0152588,0.00854492,0.0222778,-0.0393677,0.027771,0.0384521
79,1,0.0247192,0.0430298,0.0369263,0.0598145,-0.00610352,0.000610352,-0.00183105,0.0286865,0.03479,0.0292969,-0.0143433,0.0234985,0.0390625
79,2,0.0384521,-0.0106812,0.0192261,0.000610352,0.0149536,0.0134277,-0.00488281,0.0549316,0.0256348,0.0354004,-0.0299072,0.0234985,0.0231934
79,3,0.0317383,0.0442505,-0.000305176,0.012207,0.010376,0.0137329,-0.0512695,0.0210571,0.027771,0.101318,-0.0338745,0.0238037,0.0640869
79,4,0.0137329,0.0405884,0.0137329,0.0216675,-0.0442505,0.00946045,-0.0158691,0.00366211,0.0274658,0.0323486,-0.0186157,0.03479,0.0253296
80,0,0.0317383,0.0338745,-0.0231934,0.0177002,0.0177002,-0.000915527,0.0152588,0.0335693,0.0537109,-0.000610352,-0.027771,0.0274658,0.0289917
80,1,0.0363159,0.0088501,0.0228882,0.00427246,0.00732422,0.0238037,0.0292969,-0.00671387,0.0253296,0.0137329,-0.0253296,0.0311279,0.0244141
80,2,0.0231934,0.0292969,0.0164795,-0.0274658,0.015564,0.0210571,0.10437,-0.00976562,0.0189209,0.0326538,-0.0286865,0.0253296,0.0250244
80,3,0.0268555,0.0387573,0.00823975,0.0115967,0.0289917,-0.00427246,0.0192261,-0.00488281,0.0396729,0.0262451,-0.0305176,0.0253296,0.0906372
80,4,-0.0088501,0.0286865,0.0201416,0.00976562,-0.0109863,0.0216675,0.000915527,-0.0158691,0.0158691,0.0088501,-0.0265503,0.055542,0.0210571
81,0,0.0430298,0.0289917,0.0210571,0.0280762,0.0115967,0.00946045,-0.00427246,-0.00793457,0.0296021,0.0170898,-0.0415039,0.0259399,0.043335
81,1,0.0442505,0.0271606,0.0271606,0.0161743,0.0234985,0.0115967,0.0088501,-0.0140381,0.0311279,0.0189209,0.00762939,0.0457764,0.0289917
81,2,0.0354004,0.0646973,0.0119019,0.0216675,0.0808716,0.00732422,0.00671387,-0.000915527,0.0268555,0.0210571,-0.032959,0.0518799,0.00793457
81,3,0.0506592,0.0793457,0.0366211,0.0164795,0.0524902,0.0152588,0.000610352,0.03479,0.00549316,0.020752,-0.0140381,0.0418091,0.0100708
81,4,0.0424194,0.0622559,0.0222778,0.0198364,-0.0198364,-0.0112915,0.00427246,0.0195312,0.017395,0.0183105,-0.0296021,0.038147,0.0125122
82,0,0.0350952,0.0567627,0.0271606,0.0250244,0.0131226,0.00427246,-0.00518799,0.0143433,0.0119019,0.0411987,-0.00457764,0.0250244,0.00183105
82,1,0.0973511,0.0341797,0.0192261,0.088501,0.000305176,0.0164795,0.0372314,0.108032,0.0280762,0.0198364,-0.0302124,0.0320435,-0.0158691
82,2,0.0326538,0.0109863,0.0274658,0.0222778,0.0195312,0.043335,0.00732422,0.0933838,0.0125122,0.0463867,-0.0311279,0.062561,0.00152588
82,3,0.0195312,0.0286865,0.0289917,0.0393677,0.00946045,0.0180054,0.0338745,0.0839233,0.00366211,0.0390625,-0.0311279,0.0360107,0.00946045
82,4,0.0442505,0.0289917,0.0421143,0.0396729,0.0119019,0.0125122,0.03479,0.0515747,0.0268555,0.0405884,-0.0317383,0.0357056,0.015564
83,0,0.0271606,0.00396729,0.0354004,0.0198364,0.0302124,0.00549316,0.0115967,0.0482178,0.0265503,0.0317383,-0.039978,0.0250244,-0.00640869
83,1,0.00579834,0.0234985,0.03479,0.0332642,0.0216675,0.017395,0.0445557,0.0213623,0.0228882,0.0415039,-0.0491333,0.0338745,0.0363159
83,2,0.0384521,0.0286865,0.0308228,0.0292969,0.0109863,0.0189209,0.0198364,0.0390625,0.0436401,0.0415039,-0.0524902,0.0201416,-0.0271606
83,3,0.0469971,0.039978,0.0634766,0.0286865,0.0308228,0.0125122,0.017395,0.0140381,0.0241089,0.0119019,-0.0549316,0.0292969,0.0411987
83,4,0.0265503,0.0354004,0.0698853,0.0167847,0.012207,0.0482178,0.0299072,0.0112915,0.0286865,0.0262451,-0.0415039,0.0140381,0.0250244
84,0,0.0164795,0.039978,0.0549316,0.0341797,0.0152588,0.0201416,0.00610352,-0.0274658,0.0119019,0.0238037,-0.0427246,0.0234985,0.0302124
84,1,0.0140381,0.0640869,0.0408936,0.03479,0.0344849,0.0234985,0.00396729,0.0134277,0.0149536,0.0308228,-0.0427246,-0.0177002,0.0234985
84,2,0.027771,0.0408936,0.0387573,0.0317383,0.0247192,0.0112915,0.00671387,0.00305176,0.0131226,0.0289917,-0.0421143,0.0192261,0.0146484
84,3,0.0164795,0.0390625,-0.00488281,0.0128174,0.0308228,0.032959,0.0204468,0.000915527,0.0253296,0.0283813,-0.0323486,0.0149536,0.017395
84,4,0.0439453,0.0430298,0.0201416,0.0308228,0.0332642,0.065918,0.00549316,-0.00488281,0.0183105,0.0189209,-0.0424194,0.0204468,0.0299072
85,0,0.0109863,0.0393677,0.0402832,0.027771,0.0183105,0.0204468,0.0134277,0.00640869,0.012207,0.0576782,-0.0244141,0.0283813,0.00946045
85,1,0.0247192,0.0558472,0.0271606,0.0262451,0.0299072,0.0128174,0.0372314,-0.0280762,0.0143433,0.0253296,-0.0299072,0.0473022,0.0344849
85,2,0.0268555,0.0335693,0.0341797,0.0341797,0.0234985,0.0213623,0.0360107,0.0180054,0.0204468,0.00823975,-0.0286865,0.032959,0.0473022
85,3,0.0320435,0.0311279,0.0256348,0.0274658,0.0308228,0.0265503,0.0259399,0.065918,0.0131226,0.0192261,0.00488281,0.0457764,0.0244141
85,4,0.0256348,0.0344849,0.0158691,0.0283813,0.088501,0.0216675,0.0405884,0.0198364,0.0106812,0.0292969,-0.0317383,0.0457764,0.00946045
86,0,0.0424194,0.0360107,0.0198364,0.0152588,0.0265503,0.0231934,0.0262451,0.0234985,0.017395,0.0234985,0.00762939,0.0350952,0.020752
86,1,0.0231934,0.0402832,0.0341797,0.0311279,0.0192261,0.00366211,0.0274658,0.0320435,0.0210571,0.0320435,-0.0271606,0.0411987,0.0128174
86,2,0.0332642,0.0268555,0.0469971,0.0170898,0.00335693,0.0234985,0.0219727,0.0473022,0.0222778,-0.017395,-0.0198364,0.0250244,-0.00732422
86,3,0.0253296,0.0265503,0.0354004,0.0323486,0.012207,-0.00579834,0.0241089,0.0604248,-0.0296021,0.0332642,-0.0149536,0.0405884,-0.0012207
86,4,-0.0115967,0.0292969,0.038147,-0.0216675,0.0186157,0.00183105,-0.0442505,0.0128174,0.00244141,0.0317383,-0.038147,0.0521851,0.0137329
87,0,0.00610352,0.0338745,0.0305176,0.0262451,0.0201416,0.0296021,0.010376,0.0146484,0.0170898,0.0311279,-0.0210571,0.0317383,0.0125122
87,1,0.0164795,0.027771,0.000915527,0.0271606,0.015564,0.0201416,0.00915527,0,-0.00732422,0.0378418,-0.0305176,0.0418091,0.00366211
87,2,0.0524902,0.0619507,0.0512695,0.032959,0.0189209,0.0372314,-0.012207,0.00396729,0.0189209,0.0415039,-0.0296021,0.0238037,0.0576782
87,3,0.0521851,0.0311279,0.0613403,0.0143433,0.0250244,0.0332642,-0.00488281,-0.00671387,0.0180054,0.0354004,-0.0402832,0.0323486,0.0268555
87,4,0.0427246,0.0259399,0.0350952,0.0274658,0.0140381,0.0152588,-0.00976562,-0.0256348,0.00946045,0.00213623,-0.0396729,0.0317383,0.0579834
88,0,0.0335693,0.0256348,0.045166,0.0244141,0.0128174,0.00671387,0.00213623,-0.00915527,0.0234985,0.0231934,-0.0234985,0.0521851,0.0408936
88,1,-0.0302124,0.0332642,0.0390625,0.043335,0.0271606,0.0128174,0.00488281,-0.012207,0.0283813,0.0360107,-0.0308228,0.0427246,0.0354004
88,2,0.0219727,0.0463867,0.0582886,0.038147,-0.020752,0.00152588,0.0268555,-0.010376,0.0244141,0.0271606,-0.0283813,0.0454712,0.0506592
88,3,-0.0436401,0.0427246,0.0363159,0.0839233,0.0302124,0.0415039,-0.0201416,0.00274658,0.0186157,0.0704956,-0.0302124,0.0146484,0.0372314
88,4,0.0228882,0.03479,0.0363159,0.0311279,0.0204468,0.0378418,0.0509644,0.0131226,0.0262451,0.00610352,-0.0326538,0.0100708,0.0595093
89,0,0.0234985,0.015564,0.0601196,0.0228882,0.0344849,0.0314331,0.0457764,0.0308228,0.00640869,0.0189209,-0.0238037,0.0436401,0.0424194
89,1,0.0167847,0.0384521,0.0296021,0.020752,0.0262451,0.0228882,0.0302124,0.0457764,0.0198364,0.0308228,-0.0143433,0.0332642,-0.0119019
89,2,0.0692749,0.0421143,0.0335693,0.0415039,0.0250244,0.0112915,-0.0244141,0.0479126,0.0106812,0.0143433,-0.0247192,0.0289917,0.0363159
89,3,0.0448608,0.0228882,0.0411987,0.0311279,0.0134277,0.0198364,0.038147,0.0585938,0.0308228,0.0125122,-0.0354004,0.0244141,0.0302124
89,4,0.00671387,0.0369263,0.0222778,0.0653076,0.0131226,0.010376,0.020752,0.0592041,0.0317383,0.017395,-0.0360107,0.0387573,0.00946045
90,0,0.0338745,0.0271606,0.0283813,0.0241089,0.0167847,0.0088501,0.015564,0.0585938,0.00671387,0.0164795,-0.0125122,0.0183105,0.000610352
90,1,0.0222778,0.0256348,0.0332642,0.00335693,0.0299072,0.0210571,-0.0674438,0.0201416,0.00976562,-0.0357056,-0.0292969,0.00518799,0.0540161
90,2,0.0106812,0.0268555,0.0366211,0.0424194,0.0231934,0.0216675,-0.00732422,0.0167847,0.0143433,0.0186157,-0.022583,-0.00732422,0.0311279
90,3,0.00244141,0.0250244,0.103455,0.0372314,0.0241089,-0.00335693,-0.0231934,0.0164795,0.0152588,0.00396729,-0.0238037,0.0106812,0.0473022
90,4,0.0146484,0.0610352,0.0305176,0.0436401,0.0256348,0.00762939,0.010376,0.0180054,0.00671387,0.00640869,-0.0311279,0.0286865,0.067749
91,0,0.0158691,0.0134277,0.0213623,0.0192261,0.0244141,0.0170898,0.0112915,0.012207,0.0177002,0.0231934,-0.0250244,0.0149536,0.0704956
91,1,0.0271606,0.00274658,0.0216675,0.0357056,0.0177002,0.0247192,0.017395,0.00854492,0.0125122,0.0222778,-0.0186157,0.0274658,0.0759888
91,2,0.032959,0.0445557,0.0195312,0.0274658,0.0222778,0.0216675,0.00701904,0.00457764,0.0271606,0.0128174,-0.0241089,0.0314331,0.0759888
91,3,0.0311279,0.0363159,-0.0292969,0.0393677,0.0256348,-0.022583,0.0146484,0.00396729,0.0186157,0.0250244,-0.0164795,0.0598145,0.0540161
91,4,0.0271606,0.0338745,0.0250244,0.0231934,0.0247192,0.0350952,0.0256348,-0.015564,-0.00488281,0.0204468,-0.0210571,-0.0384521,0.0375366
92,0,0.0210571,0.0363159,0.00396729,0.0259399,0.0265503,0.0109863,0.0125122,0.0247192,-0.00640869,0.0268555,-0.0274658,0.0314331,0.0466919
92,1,0.0247192,0.0460815,-0.00366211,0.0222778,0.0393677,0.0198364,0.0341797,0.0494385,0.0262451,0.0262451,-0.0152588,-0.0109863,0.0332642
92,2,0.0250244,0.0271606,0.00732422,-0.0143433,0.00915527,0.0326538,-0.0158691,-0.00366211,0.0192261,0.0219727,-0.0112915,0.0296021,0.020752
92,3,0.0234985,0.0320435,0.010376,0.0198364,0.0283813,0.0222778,0.0326538,-0.000915527,0.0210571,0.0415039,-0.0524902,0.0378418,0.032959
92,4,0.0125122,0.0299072,-0.0363159,0.0253296,0.0323486,0.0732422,0.0488281,0.00366211,0.03479,0.0140381,-0.0286865,0.0271606,0.0582886
93,0,0.0354004,0.0164795,0.0195312,0.0332642,0.022583,0.0460815,0.0384521,0.0112915,0.0109863,0.0131226,-0.0274658,0.0183105,0.0894165
93,1,0.0253296,0.0762939,0.0134277,0.0265503,-0.0265503,0.0415039,0.050354,0.0134277,0.0378418,0.00518799,-0.0338745,0.0149536,0.0817871
93,2,0.0280762,0.039978,-0.0186157,0.0323486,0.0350952,0.0387573,0.0311279,0.0115967,0.0308228,0.010376,-0.0250244,0.0262451,0.0363159
93,3,0.0134277,0.0305176,0.0167847,0.045166,0.0402832,0.0204468,0.0250244,0.000610352,0.0140381,0.00427246,-0.0283813,0.0283813,0.0564575
93,4,0.0219727,-0.0106812,0.020752,0.0164795,0.0186157,0.0387573,0.0338745,0.057373,0.0167847,0.0390625,-0.0170898,0.022583,0.032959
94,0,0.0314331,0.0231934,0.0253296,0.032959,0.0320435,0.03479,0.0234985,0.0088501,0.0250244,-0.0546265,-0.0244141,0.0128174,0.0686646
94,1,0.0708008,0.0274658,0.0335693,0.0598145,0.0411987,0.0299072,0.0256348,0.012207,0.0119019,0.0283813,-0.00183105,0.0177002,0.000610352
94,2,0.0234985,0.015564,0.0421143,0.0424194,0.0390625,0.0228882,0.00366211,0.0210571,0.0286865,0.0363159,-0.0012207,0.0238037,-0.00579834
94,3,0.0231934,0.0100708,0.0115967,0.0292969,0.0350952,0.0204468,0.0128174,0.0262451,0.038147,0.0228882,0.000305176,0.00518799,0.000610352
94,4,0.0219727,0.0170898,0.0296021,0.0271606,0.0210571,0.0601196,-0.00518799,0.00518799,0.022583,0.0192261,-0.00854492,0.0354004,0.0158691
95,0,0.0216675,0.0482178,0.0183105,0.0280762,0.0234985,0.0344849,-0.00823975,0.0134277,0.00610352,0.0213623,-0.0192261,0.0164795,0.0146484
95,1,0.022583,0.0314331,0.0317383,0.0210571,0.00335693,0.0872803,0.0125122,0.020752,0.0564575,0.0131226,-0.0115967,0.0482178,-0.0100708
95,2,0.0390625,0.0268555,0.0289917,0.0357056,0.0326538,0.0378418,0.00488281,-0.0012207,0.0134277,0.0119019,-0.0100708,0.0222778,-0.0231934
95,3,0.0241089,0.0286865,0.0344849,0.0210571,0.0286865,0.0296021,0.0357056,-0.0299072,0.0106812,0.017395,-0.00732422,0.0131226,-0.0241089
95,4,0.0350952,0.0213623,0.0283813,0.0378418,0.0338745,0.00183105,0.0302124,-0.0088501,-0.0189209,0.0286865,-0.010376,0.0231934,0.0167847
96,0,0.0372314,0.0863647,0.0250244,0.0338745,0.0372314,0.0210571,0.0421143,0.00610352,0.0238037,0.010376,-0.0161743,0.0100708,0.0115967
96,1,0.0134277,0.0149536,0.0311279,0.0384521,0.0262451,0.0268555,0.00427246,0.000915527,0.0192261,-0.00244141,-0.017395,0.0189209,0.0393677
96,2,-0.0231934,0.0320435,0.0247192,-0.0137329,0.0488281,0.0238037,0.0350952,0.0115967,0.0241089,0.00671387,-0.00427246,0.0170898,0.0112915
96,3,0.0311279,0.022583,0.0326538,0.0106812,0.0280762,0.0402832,0.0308228,0.0534058,0.0271606,0.00793457,-0.022583,0.0161743,0.0183105
96,4,0.027771,0.0134277,0.0418091,0.0515747,0.0262451,0.0424194,-0.0601196,0.0460815,0.0216675,0.010376,-0.0164795,0.0192261,0.0183105
97,0,0.03479,0.0158691,0.0283813,0.0299072,0.0259399,0.0247192,0.00183105,0.0143433,0.0244141,0.00854492,-0.0189209,0.0100708,0.0384521
97,1,0.0131226,0.0146484,0.0384521,0.065918,0.038147,0.0299072,0.0161743,0.00427246,0.0186157,0.0796509,-0.0189209,0.020752,0.017395
97,2,0.0112915,0.00976562,0.0518799,0.0363159,0.03479,0.0149536,0.0314331,0.0485229,0.017395,0.0320435,-0.072937,0.0106812,0.0262451
97,3,0.0228882,0.0180054,0.0302124,0.0344849,0.0585938,0.0393677,0.0332642,0.0338745,-0.0131226,0.0311279,-0.0189209,0.0585938,0.0219727
97,4,0.0241089,0.0115967,0.0372314,0.03479,0.0253296,0.022583,0.0164795,0.0506592,0.00488281,0.0195312,-0.0320435,0.0213623,0.027771
98,0,0.0424194,0.012207,-0.0088501,-0.00579834,0.0161743,0.0421143,-0.00305176,0.0506592,0.0177002,0.0177002,0.0241089,0.0164795,0.0314331
98,1,0.022583,0.0253296,0.055542,0.00579834,0.0289917,0.0286865,0.032959,0.0439453,0.0119019,0.00915527,-0.0228882,0.0152588,0.0204468
98,2,0.0186157,0.0189209,0.0170898,0.0192261,0.0335693,0.0305176,0.085144,0.0271606,0.0177002,0.00335693,-0.0228882,0.0134277,0.0314331
98,3,0.0259399,0.0125122,0.0320435,0.0302124,0.0250244,0.032959,0.0244141,0.0378418,0.017395,0.0152588,-0.020752,-0.0268555,0.0366211
98,4,0.032959,-0.00793457,0.020752,0.022583,0.0485229,0.0231934,0.0317383,0.0115967,0.0241089,0.0256348,-0.0259399,0.00976562,0.032959
99,0,0.0125122,-0.000915527,0.0177002,0.0195312,-0.00762939,0.0393677,0.0506592,0.0418091,0.0128174,0.00915527,-0.010376,0.0158691,0.0253296
99,1,0.00823975,0.0234985,0.0146484,0.0210571,0.00946045,0.0476074,0.0354004,-0.00366211,0.0149536,0.0283813,-0.0302124,0.0100708,0.0357056
99,2,0.0112915,-0.0384521,0.0231934,0.0244141,0.0448608,0.012207,0.0311279,-0.0195312,0.0296021,0.0134277,-0.0228882,0.00518799,0.0448608
99,3,0.0274658,0.0088501,0.0357056,0.0186157,0.0411987,0.0305176,0.055542,0,-0.00488281,0.0180054,-0.0228882,-0.0012207,0.0491333
99,4,0.071106,0.038147,0.0192261,0.0790405,0.0158691,0.0134277,0.0796509,-0.00854492,0.0323486,0.0088501,-0.0250244,0.0271606,0.0286865
100,0,0.0140381,0.0317383,0.0274658,0.022583,0.0439453,0.0286865,0.0387573,-0.0109863,0.0088501,0.012207,-0.0311279,-0.0201416,0.0454712
100,1,0.00640869,0.00946045,0.0219727,0.0253296,0.027771,0.0213623,0.0457764,-0.0100708,0.00762939,0,-0.0494385,0.0323486,0.0463867
100,2,0.00274658,0.0146484,0.0250244,0.015564,0.0213623,0.0204468,0.0241089,0.0134277,0.0134277,-0.00640869,-0.0253296,0.0244141,0.0378418
100,3,0.00610352,0.0158691,0.0268555,0.0231934,0.0259399,0.0311279,0.0375366,0.0344849,0.0186157,0.0198364,-0.0335693,-0.000915527,0.0512695
100,4,-0.00213623,0.0289917,0.0662231,0.0213623,0.03479,0.0195312,0.057373,0.017395,0.0149536,0.00518799,-0.0259399,0.0109863,0.0393677
101,0,0.0341797,0.0234985,0.0112915,0.0317383,0.0335693,0.0393677,0.0567627,0.00427246,0.0137329,0.0125122,-0.022583,0.0134277,0.0256348
101,1,0.0262451,0.0112915,0.020752,0.0302124,0.0479126,0.0299072,0.0579834,0.00183105,0.0271606,0.0106812,-0.0219727,0.0305176,0.0234985
101,2,0.020752,0.0192261,-0.00366211,0.0170898,0.0457764,0.071106,0.0613403,-0.00518799,0.0250244,-0.0012207,-0.0143433,0.0222778,0.0515747
101,3,0.027771,0.0231934,0.038147,0.0518799,0.0436401,0.0302124,0.062561,0.00518799,0.00610352,0.00762939,-0.010376,0.0222778,0.0250244
101,4,0.0112915,0.0341797,0.0357056,0.022583,-0.0210571,0.039978,0.0695801,0.038147,0.032959,0.00579834,-0.0146484,0.0204468,0.0308228
102,0,0.0411987,0.0289917,0.0140381,0.0274658,-0.0115967,0.0241089,0.0491333,0.00152588,0.0332642,0.0189209,-0.0241089,0.0265503,0.0241089
102,1,0.0335693,0.0238037,0.0305176,0.0274658,0.0338745,0.0256348,0.0527954,-0.00976562,0.0137329,0.00579834,-0.0164795,0.0149536,0.0344849
102,2,0.00671387,0.00976562,0.0177002,0.0372314,0.0106812,0.0390625,0.0500488,0.00213623,-0.0445557,0.00854492,-0.0186157,0.0469971,0.0454712
102,3,0.0241089,0.0195312,0.0201416,0.0265503,0.0283813,0.0427246,0.00274658,0.0231934,0.0201416,-0.0189209,-0.00915527,0.0234985,-0.00915527
102,4,0.0186157,0.0137329,0.03479,0.0247192,0.0500488,0.0772095,0.012207,-0.0469971,0.00823975,0.0228882,-0.00579834,0.0112915,0.0354004
103,0,0.00854492,-0.00244141,0.0180054,0.0238037,0.0265503,0.0308228,0.0112915,0.000610352,0.0128174,-0.0100708,-0.00244141,0.0231934,-0.0140381
103,1,0.0302124,0.000915527,0.0210571,0.0494385,0.0161743,0.0247192,-0.00671387,0.00427246,0.0180054,0.0167847,0.0305176,0.0292969,0.0222778
103,2,0.0134277,0.00274658,0.0213623,0.0259399,0.0180054,0.0421143,-0.0195312,0.0421143,-0.00732422,0.0192261,-0.0112915,0.0228882,-0.0180054
103,3,0.00579834,-0.00335693,0.0161743,0.0408936,0.0396729,0.0396729,-0.00640869,0.0769043,0.00518799,0.0128174,-0.0125122,0.0415039,-0.0234985
103,4,0.00946045,0.0210571,0.022583,0.0125122,0.0384521,0.0338745,0.00152588,0.0796509,0.0186157,0.022583,-0.0109863,0.0326538,-0.00793457
104,0,0.017395,0.0146484,0.0366211,0.0231934,0.0250244,0.0497437,0.00305176,0.050354,0.0186157,0.0314331,-0.0192261,0.0363159,-0.0204468
104,1,0.0201416,-0.00579834,0.0427246,0.0357056,0.0680542,0.0314331,0.0146484,0.0286865,0.0143433,0.0317383,-0.017395,-0.0314331,0.0427246
104,2,0.0369263,0.0140381,0.03479,-0.00671387,0.0299072,0.0250244,-0.020752,0.0247192,0.020752,-0.0137329,-0.0119019,0.0250244,0.027771
104,3,0.0228882,0.0119019,0.0109863,0.0289917,0.0350952,0.0234985,0.0259399,0.0286865,0.0415039,0.0170898,-0.0115967,0.00854492,0.0210571
104,4,0.0213623,0.0158691,0.0238037,0.022583,0.0314331,0.00213623,0.0265503,-0.00488281,-0.015564,0.0167847,-0.0234985,-0.057373,0.0128174
105,0,0.0143433,0.0106812,0.0146484,0.0424194,0.022583,0.085144,0.0341797,0.00946045,0.0497437,0.00762939,-0.0180054,0.00366211,0.0125122
105,1,0.0238037,0.00976562,0.0143433,0.0195312,0.0289917,0.101624,0.0320435,0.00701904,-0.0201416,0.0140381,-0.0228882,-0.00213623,0.0149536
105,2,-0.0216675,0.0170898,0.0274658,0.0296021,0.0378418,0.0137329,0.0546265,0.0308228,0.0158691,0.0253296,-0.0473022,0.0100708,0.0271606
105,3,0.00793457,0.012207,0.0344849,0.0167847,0.0302124,0.0299072,0.0274658,0.0421143,0.0357056,0.000610352,-0.0216675,0.00366211,0.00732422
105,4,-0.00396729,0.0231934,0.0186157,0.0387573,0.022583,0.0283813,0.0222778,0.062561,0.0140381,0.0158691,-0.0167847,0.00366211,-0.00549316
106,0,0.00579834,0.0109863,0.0158691,0.0396729,0.00946045,0.0311279,0.0320435,0.0296021,0.0213623,0.03479,-0.0299072,-0.00488281,0.00335693
106,1,0.0338745,0.0161743,0.00396729,0.0619507,0.0100708,0.0317383,-0.0292969,0.0595093,0.0274658,0.0759888,-0.043335,0.0186157,-0.000305176
106,2,0.0128174,0.0256348,0.00457764,0.0234985,0.0314331,-0.00335693,0.0204468,0.0631714,0.0366211,0.0268555,-0.00946045,-0.000305176,-0.000305176
106,3,0.0250244,0.0585938,0.00610352,0.0100708,0.0299072,0.0296021,-0.0012207,0.0390625,0.0234985,0.00610352,-0.0146484,0.0250244,0.00335693
106,4,0.00640869,0.0131226,0.0878906,0.0253296,0.0228882,0.0186157,0.0250244,0.0332642,0.0341797,0.0137329,-0.0213623,0.0244141,-0.00549316
107,0,0.0643921,0.0143433,0.0192261,0.0643921,0.0366211,0.0259399,0.0390625,0.0100708,0.0231934,0.010376,-0.0460815,0.0219727,-0.010376
107,1,0.0204468,0.0231934,0.0640869,0.0158691,0.0332642,0.0973511,0.0537109,0.0283813,-0.00396729,0.000305176,-0.0274658,0.022583,0.000305176
107,2,0.0274658,-0.000610352,0.0213623,0.0164795,0.0305176,0.00854492,0.0878906,0.0253296,0.0418091,0.00946045,-0.0152588,0.022583,0.00671387
107,3,-0.00152588,0.0100708,0.0204468,-0.00274658,0.0231934,0.0180054,0.0308228,0.0601196,0.022583,0.00457764,-0.0241089,0.0180054,0.0100708
107,4,0.00579834,0.010376,0.0219727,0.0390625,0.0308228,0.0262451,0.0506592,0.0289917,0.0247192,-0.0393677,-0.0338745,0.0112915,0.00335693
108,0,0.00915527,0.03479,0.00854492,0.0265503,0.0228882,0.0140381,0.0372314,0.0183105,0.020752,0.0140381,-0.0292969,0.0204468,0.0244141
108,1,-0.00610352,0.0112915,0.0115967,0.0299072,0.0250244,0.0869751,0.0457764,0.00915527,-0.0216675,0.00671387,-0.0357056,0.012207,0.0170898
108,2,0.0357056,0.015564,-0.00366211,0.00976562,0.0808716,0.0265503,0.0372314,0.00152588,0.0192261,0.000610352,-0.0088501,0.0231934,0.0466919
108,3,0.00671387,0.0186157,0.00579834,0.0134277,0.0500488,0.00427246,0.0534058,0.0192261,0.0180054,0.0119019,-0.0265503,0.0488281,0.0177002
108,4,0.010376,0.0360107,0.0167847,0.010376,-0.000305176,0.0283813,0.0488281,-0.0292969,0.0231934,0.0332642,-0.0228882,0.0262451,0.0289917
109,0,0.0219727,0.0698853,0.0134277,0.0299072,0.0686646,0.0170898,0.0436401,0.020752,0.0186157,0.0320435,-0.0357056,0.0231934,0.0460815
109,1,0.0115967,0.00823975,0.0088501,0.0100708,0.0402832,0.0457764,0.0500488,-0.00549316,0.00335693,0.0314331,-0.0198364,-0.0183105,0.0616455
109,2,0.0195312,0.0247192,0.0128174,0.032959,0.0283813,0.0372314,0.0384521,0.0338745,0.0177002,0.0146484,-0.0262451,0.0109863,0.0460815
109,3,0.0125122,0.0112915,0.0421143,0.00244141,0.0271606,0.0408936,0.0384521,0.0469971,0.0259399,0.03479,-0.0231934,0.0402832,0.0311279
109,4,0.0314331,0.0375366,0.0183105,0.022583,0.0192261,0.0286865,0.057373,0.0592041,0.0192261,0.0341797,-0.000305176,0.0280762,0.0344849
110,0,0.0262451,0.00488281,-0.00183105,0.0186157,0.0186157,0.0195312,0.0585938,0.0320435,0.0210571,0.116272,-0.0262451,0.0305176,0.0201416
110,1,-0.0396729,0.0134277,0.0119019,0.0689697,0.0204468,0.0335693,0.0393677,0.0286865,0.0213623,0.0286865,-0.0296021,0.038147,0.0186157
110,2,0.0112915,0.0112915,0.00671387,0.0167847,0.0247192,0.0222778,0.0619507,0.0244141,0.0213623,0.0195312,-0.0323486,0.0439453,0.0161743
110,3,0.00701904,0.0137329,0.0161743,0.00976562,0.0338745,0.0274658,0.0457764,-0.0302124,0.0183105,0.0415039,-0.0219727,0.0430298,0.0167847
110,4,0.0189209,-0.00732422,0.0143433,0.0201416,-0.0216675,0.0250244,0.0454712,0.0567627,-0.00823975,0.03479,-0.0543213,0.0195312,0.0167847
111,0,0.0323486,0.00579834,0.0164795,0.020752,0.0396729,0.0228882,0.0338745,0.0164795,-0.0128174,0.0192261,-0.0317383,0.0308228,0.0143433
111,1,0.0524902,0.00549316,0.0213623,0.0238037,0.0213623,0.057373,-0.00549316,0.0326538,0.0228882,0.00854492,-0.0219727,0.0180054,0.0335693
111,2,0.0308228,0.0332642,0.0177002,0.032959,-0.0143433,0.0219727,0.00946045,0.0759888,0.0350952,0.0186157,-0.0210571,0.0134277,0.00671387
111,3,0.0415039,0.0106812,0.0405884,0.0418091,0.00549316,0.00732422,-0.0183105,0.039978,0.0390625,0.0247192,-0.0204468,0.00915527,0.0283813
111,4,0.00396729,0.012207,0.0442505,0.0250244,0.010376,0.0164795,0.03479,0.032959,0.0299072,0.0268555,-0.0149536,-0.0308228,-0.0415039
112,0,0.00213623,0.0186157,0.0469971,0.017395,0.0372314,0.017395,0.00823975,0.000610352,0.0289917,0.0198364,-0.0314331,-0.00671387,-0.0289917
112,1,0.0115967,0.0231934,0.0415039,0.0183105,0.0201416,0.0268555,0.00152588,0.0170898,0.0390625,0.0119019,-0.0323486,0.00823975,-0.0183105
112,2,-0.00701904,0.0311279,0.0363159,0.0192261,0.0280762,0.032959,0.0259399,0.0164795,0.0442505,0.0335693,-0.0265503,0.0213623,0.00549316
112,3,0.0125122,0.0167847,0.0286865,0.0137329,0.0088501,0.0219727,0.0244141,0.0967407,0.020752,0.0253296,-0.0289917,0.0357056,0.0198364
112,4,-0.00335693,0.0265503,-0.00488281,0.0186157,0.0012207,0.0375366,0.0360107,0.0540161,0.0259399,0.0564575,-0.0143433,0.0723267,0.0012207
113,0,0.0631714,0.0268555,-0.0354004,0.0939941,0.0198364,0.0280762,0.0500488,0.0485229,0.0326538,-0.0238037,-0.0283813,0.0372314,0.0170898
113,1,0.00274658,0.0308228,-0.020752,0.0357056,0.00518799,0.0317383,0.0323486,0.0341797,0.0219727,0.0250244,-0.0637817,0.0192261,0.0222778
113,2,0.0201416,0.0552368,-0.00427246,0.0131226,0.0308228,0.0234985,0.0454712,0.0311279,0.0210571,0.0408936,-0.0192261,0.0250244,0.00396729
113,3,0.0241089,0.0296021,-0.0140381,0.0189209,-0.0396729,0.0210571,0.0454712,0.0741577,0.0280762,0.0372314,-0.0247192,0.0296021,0.0161743
113,4,0.0152588,-0.0177002,0.00335693,0.0238037,0.0543213,0.0332642,0.0296021,0.132751,0.0323486,0.0341797,-0.0158691,0.0183105,0.00793457
114,0,0.0418091,0.0222778,-0.0119019,-0.0231934,0.0131226,0.0268555,0.0482178,0.0466919,0.0411987,0.0131226,-0.0189209,0.0189209,0.00274658
114,1,0.0265503,0.0497437,-0.0445557,0.0195312,0.0219727,0.0219727,0.043335,0.0265503,0.0259399,0.0299072,-0.0262451,-0.00488281,-0.0396729
114,2,0.0247192,0.0119019,0.00854492,0.00762939,0.00549316,0.0100708,0.0436401,0.0405884,0.0335693,0.0601196,-0.022583,0.015564,0.0354004
114,3,0.0119019,0.0177002,-0.0125122,0.0265503,0.015564,0.0131226,0.0579834,0.00335693,0.0457764,0.0253296,-0.0427246,0.00793457,0.0228882
114,4,0.0848389,0.0283813,0.0192261,-0.0256348,0.0134277,0.0244141,0.0512695,0.00305176,0.0469971,0.0500488,-0.0152588,0.0143433,0.0360107
115,0,-0.0619507,0.0250244,0.0131226,0.010376,0.027771,0.0253296,0.022583,0.0244141,0.0283813,0.0350952,-0.0259399,0.0219727,0.0561523
115,1,0.03479,0.0488281,0.017395,0.0311279,0.0238037,0.0430298,0.00427246,0.0289917,0.0299072,0.0585938,-0.0125122,0.0259399,0.0289917
115,2,0.0357056,0.0158691,0.0152588,0.00335693,0.00823975,0.0119019,0.0271606,-0.00488281,0.0476074,0.0506592,-0.0289917,0.0119019,0.0424194
115,3,0.0335693,0.0164795,0.0216675,0.00183105,0.0137329,0.00549316,0.0201416,0.00946045,0.0418091,0.0494385,-0.0283813,0.0143433,0.0357056
115,4,0.0299072,0.0158691,0.0238037,0.0088501,0.032959,0.00762939,0.0335693,0.0253296,-0.00274658,0.0460815,-0.015564,0.0250244,0.0363159
116,0,0.0317383,0.0271606,0.010376,0.020752,0.0140381,0.0125122,0.0320435,0.0427246,0.0274658,0.0384521,-0.015564,0.0183105,-0.0140381
116,1,0.0161743,0.0152588,0.00396729,-0.00396729,0.0177002,0.00671387,0.0396729,0.0247192,0.0210571,0.0494385,-0.0140381,0.0106812,0.0274658
116,2,0.0265503,0.0787354,0.0332642,0.0149536,0.0784302,0.0192261,0.0241089,0.0198364,0.0241089,0.0317383,-0.0213623,0.032959,0.0308228
116,3,0.0299072,0.00152588,0.0167847,0.00671387,-0.0100708,0.0192261,0.0405884,-0.0314331,0.0341797,0.027771,-0.0384521,0.0250244,0.0280762
116,4,0.0549316,0.0180054,0.0149536,0.0244141,0.0274658,0.0326538,0.0320435,0.0100708,0.0332642,0.0189209,-0.0360107,0.0234985,0.00274658
117,0,0.0177002,-0.03479,0.0271606,0.0149536,-0.0372314,0.0292969,0.0210571,0.0128174,0,0.0131226,-0.0390625,0.00396729,-0.0012207
117,1,0.0231934,0.0323486,0.0408936,0.0198364,0.00518799,0.0915527,0.0256348,-0.00793457,0.00793457,0.017395,-0.0344849,-0.0308228,-0.00518799
117,2,0.0210571,0.0213623,0.00946045,0.0714111,0.017395,0.0302124,-0.00244141,0.00915527,0.0354004,0.0479126,-0.0372314,0.0180054,-0.0360107
117,3,0.0268555,0.0341797,0.0180054,0.010376,0.0546265,0.0198364,0.0299072,0.0439453,0.0473022,0.0357056,-0.0164795,0.0161743,0.00671387
117,4,-0.00732422,0.0311279,0.0183105,0.0109863,0.0271606,0.0189209,0.0323486,0.0115967,0.0363159,0.0308228,-0.0457764,0.0201416,-0.00732422
118,0,0.0720215,0.0241089,0.0247192,0.0604248,0.0012207,0.0149536,0.038147,0.00396729,0.0274658,-0.00762939,-0.0811768,0.0146484,-0.0143433
118,1,0.0314331,0.000305176,0.0244141,0.0323486,0.0167847,0.0213623,-0.00549316,0.085144,0.020752,0.017395,-0.0366211,0.0436401,0.0311279
118,2,0.0219727,0.0109863,0.020752,0.0146484,0.0180054,0.0564575,0.0167847,0.0845337,0.0558472,0.0286865,-0.0384521,0.0119019,0.0405884
118,3,0.0253296,0.0158691,0.0753784,0.0201416,0.0180054,0.0100708,0.0299072,0.0537109,0.0509644,0.0616455,-0.032959,0.0140381,0.039978
118,4,0.00610352,0.0509644,0.0259399,0.0186157,0.00549316,0.00701904,0.0283813,0.0674438,0.0354004,0.0259399,-0.038147,0.00915527,0
119,0,0.0106812,0.0222778,0.0250244,0.00549316,0.0198364,0.0183105,0.0280762,0.0357056,0.0476074,0.0268555,-0.0363159,0.0274658,-0.0482178
119,1,0.0201416,0.0149536,0.0323486,0.0765991,0.0234985,0.0457764,-0.00457764,0.0320435,0.0372314,0.0271606,-0.0299072,0.0241089,-0.0244141
119,2,0.0088501,0.027771,0.0146484,0.0219727,-0.00915527,0.0128174,-0.0143433,0.0714111,0.0167847,0.0338745,-0.00823975,0.0274658,-0.0256348
119,3,0.00366211,-0.0375366,0.000610352,0.00823975,0.0656128,0.00823975,-0.0192261,-0.00976562,0.0320435,0.0454712,-0.0180054,0.0222778,0.00701904
119,4,0.0473022,0.0186157,-0.0183105,0.0268555,0.0143433,0.0125122,-0.050354,0.0402832,0.0363159,0.0506592,-0.0311279,0.0152588,-0.00732422
120,0,0.0393677,0.0338745,-0.00183105,0.0140381,0.0189209,0.00610352,-0.032959,0.0216675,0.0289917,0.0369263,-0.0177002,0.067749,0.012207
120,1,0.020752,0.0473022,0.00274658,0.0357056,0.0231934,0.0265503,-0.0134277,0.0317383,0.0280762,0.0366211,-0.0231934,0.0268555,0.00457764
120,2,0.0228882,0.0143433,0.00244141,0.0183105,0.0601196,0.00701904,-0.0164795,0.0805664,0.0228882,0.039978,-0.0332642,0.0326538,0.012207
120,3,0.050354,0.0210571,0.0164795,0.0418091,0.0268555,0.0134277,-0.0448608,0.0476074,0.0286865,-0.00396729,-0.0772095,0.0289917,-0.0363159
120,4,0.0872803,0.0210571,0.0280762,0.0289917,0.0152588,0.0323486,-0.0204468,0.0344849,0.0238037,0.0497437,-0.032959,0.0302124,0.00732422
121,0,0.0427246,0.0170898,0.0286865,0.038147,0.0289917,0.00488281,-0.00457764,0.0222778,0.027771,0.0332642,-0.0354004,0.0274658,0.00732422
121,1,0.0250244,0.0177002,0.0137329,0.00640869,0.0271606,0.0259399,-0.000305176,0.0186157,0.0265503,0.0384521,-0.0125122,0.0186157,0.0323486
121,2,0.0265503,0.072937,0.0271606,0.0341797,0.0830078,0.0256348,-0.00457764,0.0881958,0.0234985,0.0247192,-0.0375366,0.0265503,0.0143433
121,3,0.0341797,0.0302124,0.0213623,0.0164795,0.0152588,-0.000305176,0.0189209,0.0363159,0.0537109,0.0390625,-0.0210571,0.0387573,0.0363159
121,4,0.0366211,0.0234985,0.00549316,0.00732422,0.0234985,0.0180054,0.0292969,0.0241089,0.0527954,0.0372314,-0.0390625,0.0280762,0.0228882
122,0,0.0314331,0.027771,0.0152588,0.0201416,0.000915527,0.0210571,0.0195312,0.0427246,0.0488281,0.0909424,-0.0299072,0.0161743,0.055542
122,1,0.0360107,0.0311279,0.0161743,0.0177002,0.0170898,0.015564,0.0332642,0.0323486,-0.00396729,0.0256348,-0.0292969,0.0360107,0.0109863
122,2,0.00213623,0.0308228,0.0326538,0.0131226,0.0152588,0.00793457,0.0338745,0.0115967,0.0357056,0.0177002,-0.032959,-0.0112915,0.00732422
122,3,0.0128174,0.0167847,0.0216675,0.0161743,0.0177002,0.0137329,0.0314331,0.0274658,0.0567627,0.0189209,-0.0393677,0.0570679,0.0109863
122,4,0.00823975,0.0186157,0.0170898,0.0088501,0.0131226,0.0158691,0.0283813,0.0158691,-0.0289917,0.0167847,-0.0332642,0.00518799,0.038147
123,0,-0.0189209,0.0219727,0.0250244,-0.0109863,0.0210571,0.0210571,0.0881958,0.00488281,0.0323486,0.0735474,-0.027771,0.0204468,0.00518799
123,1,0.022583,0.0274658,0.0408936,0.0140381,0.0289917,0.0259399,0.0378418,-0.00183105,0.0430298,0.0338745,-0.0354004,0.0262451,0.0509644
123,2,0.0189209,0.0274658,0.020752,0.00976562,0.0143433,0.0228882,0.0390625,-0.0134277,0.0396729,0.0506592,-0.0421143,0.0158691,0.0628662
123,3,-0.0460815,0.0195312,0.0219727,0.00732422,0.0341797,0.00518799,0.0418091,0.00213623,0.0372314,0.0299072,-0.0344849,0.0317383,0.0335693
123,4,0.0534058,0.0350952,0.0161743,0.010376,0.0369263,0.0378418,0.0244141,0.000610352,0.0460815,0.0198364,-0.00671387,0.0357056,0.0216675
124,0,0.0372314,0.0201416,0.0299072,0.0198364,-0.0158691,0.0372314,0.0228882,0.0411987,0.015564,0.0241089,-0.0308228,-0.00183105,0.0189209
124,1,0.0274658,0.0436401,0.020752,0.0115967,-0.0167847,0.015564,0.00549316,0.0637817,0.0183105,0.03479,-0.0332642,0.0302124,0.0158691
124,2,0.0195312,0.0195312,0.0314331,0.0262451,0.0305176,0.0149536,0.0170898,0.0326538,0.0326538,0.0259399,-0.0317383,0.0143433,0.0320435
124,3,0.0271606,0.0213623,0.0311279,0.0424194,0.0299072,0.0195312,0.010376,0.0180054,0.0247192,0.0286865,-0.067749,0.0152588,0.0302124
124,4,0.0216675,0.0341797,0.0357056,0.03479,0.0244141,0.0341797,0.0119019,0.0506592,0.055542,0.0308228,-0.0369263,0.0265503,0.0210571
125,0,0.0292969,0.0332642,0.0396729,0.00640869,0.0201416,0.0231934,-0.0463867,0.0466919,0.0256348,-0.0167847,-0.039978,0.000610352,0.0527954
125,1,0.015564,0.0283813,0.0582886,0.020752,0.0186157,0.00610352,-0.0308228,0.0158691,0.0244141,-0.0198364,-0.0228882,0.0262451,0.0500488
125,2,0.0540161,0.0369263,0.0357056,0.00915527,0.0219727,0.0140381,0.0592041,0.0323486,0.0286865,0.0558472,-0.0323486,0.0296021,0.0762939
125,3,0.0454712,0.0228882,0.0323486,0.0476074,0.0131226,-0.00732422,0.039978,0.0527954,0.0311279,0.0738525,-0.0738525,0.0366211,0.0323486
125,4,0.0546265,0.0369263,0.015564,0.0167847,-0.0088501,0.0152588,0.00183105,0.0488281,0.0939941,0.0421143,-0.0286865,0.0436401,0.0439453
126,0,0.0592041,0.0326538,0.0149536,0.00854492,0.0115967,0.00640869,0.0268555,0.038147,0.0289917,0.0320435,-0.0241089,0.0421143,0.0430298
126,1,0.0527954,0.0292969,-0.0482178,0.0128174,0.0115967,0.00518799,0.00793457,0.0308228,0.0161743,0.0228882,-0.0320435,0.0244141,0.0360107
126,2,0.0421143,0.0338745,0.0195312,0.015564,0.0286865,0.00579834,0.0259399,0.0491333,0.0302124,0.0271606,-0.0408936,0.0369263,0.03479
126,3,0.0476074,0.0820923,0.0180054,0.0262451,0.0439453,0.0131226,-0.00518799,0.027771,0.0238037,0.0289917,-0.0344849,0.0393677,0.0430298
126,4,0.0521851,0.00366211,0.0167847,0.0152588,0.00335693,0.00946045,0.0250244,0.0219727,0.0152588,0.0357056,-0.0357056,0.00427246,0.0369263
127,0,0.0469971,0.0860596,0.0238037,0.00488281,0.0201416,0.0158691,0.0292969,0.0201416,0.0375366,0.0250244,-0.0314331,0.0363159,0.0396729
127,1,0.0448608,0.017395,0.00854492,0.039978,0.017395,0.0585938,0.0231934,0.0131226,0.0366211,0.020752,-0.0305176,0.0100708,0.0271606
127,2,0.0384521,0.0262451,0.00732422,0.0299072,-0.0421143,0.0469971,0.00610352,0.072937,0.0466919,0.0320435,-0.043335,0.0158691,0.0543213
127,3,0.0344849,0.038147,-0.0311279,0.0201416,0.010376,0.0158691,0.0131226,0.017395,0.0192261,0.0335693,-0.0262451,0.03479,0.0442505
127,4,0.0363159,0.0311279,0.0119019,-0.0164795,0.0250244,0.0320435,0.057373,0.0219727,0.0198364,0.0344849,-0.039978,0.032959,0.0436401
128,0,0.0415039,0.0335693,0.0158691,0.0262451,0.0228882,0.00671387,0.0167847,0.00793457,0.0439453,0.0115967,-0.0430298,0.0445557,0.0720215
128,1,0.0271606,0.0280762,0.0286865,0.0161743,0.0714111,0.0177002,0.0131226,0.0491333,0.0152588,0.0204468,-0.0421143,0.0393677,0.0567627
128,2,0.0360107,0.0335693,0.038147,0.0280762,0.0119019,0.0128174,-0.00640869,0.0253296,0.015564,0.0421143,-0.0521851,0.0485229,0.0683594
128,3,0.0283813,0.0106812,0.010376,0.0250244,0.0140381,-0.000915527,0.00305176,0.0244141,0.0360107,0.0195312,-0.0335693,-0.0244141,0.0402832
128,4,0.0421143,0.039978,0.0384521,0.0286865,0.0308228,0.00549316,0.0289917,0.0125122,0.00793457,0.0292969,-0.0244141,0.0311279,0.0332642
129,0,0.0286865,0.0292969,0.0332642,0.0170898,0.0149536,-0.00915527,0.00640869,0.0137329,0.0238037,0.0274658,-0.0222778,0.0393677,0.0598145
129,1,0.0314331,0.027771,0.0881958,0.0112915,0.015564,0.0201416,0.0238037,0.0177002,0.00671387,0.00915527,-0.0228882,0.0167847,0.0430298
129,2,0.0360107,0.0341797,0.0418091,0.0222778,0.0088501,0.00793457,0.0222778,0.000610352,0.0244141,0.0271606,-0.0335693,0.0299072,-0.0186157
129,3,0.0259399,0.0274658,-0.0195312,0.0308228,0.0088501,0.0201416,0.0109863,0.022583,0.000915527,0.0177002,-0.0213623,0.0305176,0.0201416
129,4,0.0396729,0.0286865,0.0921631,0.0158691,0.0170898,0.039978,0.0302124,0.00793457,0.06073,0.0146484,-0.0323486,0.0701904,-0.0201416
130,0,0.0344849,0.0592041,0.0213623,0.0231934,0.0418091,0.0137329,0.0372314,0.00457764,0.0305176,0.00854492,-0.0244141,0.03479,0.0253296
130,1,0.0320435,0.0262451,0.0219727,0.0311279,0.00488281,0.0115967,0.0271606,0.0259399,0.010376,0.0137329,-0.0271606,0.0311279,0.045166
130,2,0.0302124,0.0259399,-0.000305176,0.0344849,0.012207,0.0189209,0.0164795,0.00274658,-0.00732422,0.0238037,-0.0244141,0.045166,0.03479
130,3,0.032959,0.0469971,0.0247192,0.0186157,0.0161743,-0.0012207,0.0195312,0.0012207,0.00946045,0.0268555,-0.0286865,0.0415039,0.0613403
130,4,0.0234985,0.0357056,0.0286865,0.0311279,0.0140381,0.0198364,0.0158691,0.00396729,0.0161743,0.022583,-0.0631714,0.0296021,0.0744629
131,0,0.0265503,0.00976562,0.032959,0.0274658,0.0299072,0.0183105,0.010376,0.0424194,-0.00152588,0.0192261,-0.0332642,0.0308228,0.0518799
131,1,0.0259399,0.0222778,0.0350952,0.0305176,0.0241089,-0.0109863,0.0268555,0.0588989,0.032959,0.0152588,0.0149536,0.0241089,0.022583
131,2,0.0253296,0.038147,0.0302124,0.0305176,0.0186157,0.0167847,0.0375366,-0.00457764,0.0146484,0.0265503,-0.0354004,0.0274658,0.00610352
131,3,0.0576782,0.0268555,0.0317383,0.0689697,0.0128174,0.00976562,0.0234985,-0.00213623,-0.000610352,0.0186157,-0.0454712,0.022583,0.0271606
131,4,0.0128174,0.0387573,0.038147,0.0335693,0.015564,-0.0350952,0.0531006,0.0158691,-0.0189209,0.0274658,-0.0296021,0.039978,0.0393677
132,0,0.0311279,0.038147,0.0265503,0.0088501,0.0286865,0.0115967,0.0271606,-0.00823975,0.0088501,-0.00701904,-0.0335693,0.0372314,0.101013
132,1,0.0158691,0.032959,0.0515747,0.00671387,0.015564,0.0128174,0.0350952,-0.00427246,0.0213623,0.022583,-0.0326538,0.0115967,0.0656128
132,2,-0.0189209,0.0335693,0.0335693,0.0186157,0.0189209,0.0119019,0.0189209,0.0195312,0.0241089,0.017395,-0.0823975,0.0271606,0.0537109
132,3,-0.0100708,0.0402832,0.0314331,0.0640869,0.0201416,0.0213623,0.0186157,-0.0119019,0.015564,0.0241089,-0.022583,0.0341797,0.0881958
132,4,0.0256348,0.0366211,0.0372314,0.00579834,-0.0466919,0.0146484,0.0268555,0.0149536,-0.00274658,0.022583,-0.0341797,0.0314331,0.0991821
133,0,0.0311279,0.0204468,0.0308228,0.0241089,0.0112915,0.0384521,0.0238037,0.012207,-0.00915527,0.0219727,-0.0354004,0.0524902,0.0970459
133,1,0.0283813,0.012207,0.0384521,0.0299072,0.0390625,0.0183105,0.0247192,-0.00976562,0.00762939,0.0280762,-0.0372314,0.0354004,0.0866699
133,2,0.0106812,0.0222778,0.0283813,0.0149536,0.0167847,0.0204468,0.0198364,0.012207,0.0747681,0.0238037,-0.0280762,-0.0305176,0.0653076
133,3,0.0405884,0.0265503,0.0448608,0.0350952,0.020752,-0.0411987,0.010376,0.00396729,0.00701904,0.0256348,-0.0323486,0.0354004,0.0311279
133,4,0.0292969,0.038147,0.0305176,0.0302124,0.0427246,0.0265503,0.0125122,-0.00854492,0.0192261,0.0158691,-0.00518799,0.0506592,0.0100708
134,0,0.0231934,0.039978,0.0384521,0.0219727,0.020752,0.0253296,0.0262451,0.00183105,0.0109863,0.0204468,-0.0100708,0.0289917,-0.00244141
134,1,0.020752,0.0137329,0.0177002,0.0421143,0.0183105,0.00823975,0.032959,-0.0170898,0.0119019,0.0177002,0.00854492,0.0286865,0.0149536
134,2,0.0146484,0.0274658,0.0357056,0.00457764,0.0137329,0.0268555,-0.00183105,0.0152588,0.00610352,0.0222778,-0.0177002,0.0289917,0.0247192
134,3,0.038147,-0.0219727,0.0311279,0.0436401,-0.0259399,0.0320435,0.0012207,0.0219727,0.0198364,0.0231934,-0.0308228,0.0280762,0.0366211
134,4,0.0292969,0.0198364,0.0387573,0.0405884,0.0100708,0.017395,0.0219727,0.0143433,0.00427246,0.0106812,-0.020752,0.0265503,0.0567627
135,0,0.03479,0.0344849,0.0335693,0.0668335,0.0201416,0.0164795,0.0186157,0.00335693,0.0186157,0.0213623,-0.027771,0.0256348,0.0411987
135,1,0.0424194,0.0213623,0.0366211,0.00640869,0.00518799,0.0265503,0.020752,0.0308228,0.0128174,0.0134277,-0.0305176,0.0195312,0.0402832
135,2,0.0646973,0.00640869,0.0305176,0.0411987,0.00762939,0.0317383,0.0106812,0.017395,0.0241089,0.0131226,-0.0128174,0.043335,0.0485229
135,3,0.0326538,0.0271606,0.0247192,0.0338745,0.0296021,0.0180054,0.0198364,0.012207,0.00640869,0.0119019,-0.0125122,0.032959,0.0479126
135,4,0.0396729,0.0265503,0.0335693,0.0402832,0.017395,0.0314331,0.000915527,0.0238037,0.0183105,0.0259399,-0.0100708,0.0305176,0.0167847
136,0,0.0234985,0.0286865,0.0335693,0.0396729,0.0253296,0.0177002,0.0158691,0.00762939,0.00946045,0.00152588,-0.0134277,0.0564575,0.0314331
136,1,0.0238037,0.0274658,-0.0305176,0.027771,0.0219727,0.0274658,0.0421143,0.0149536,0.00854492,0.020752,-0.0140381,0.0271606,0.0408936
136,2,0.0253296,0.0793457,0.0387573,0.0210571,0.020752,0.0335693,0.0112915,0.0344849,0.00366211,0.0268555,-0.00793457,0.0164795,-0.00854492
136,3,0.0326538,0.0241089,0.0152588,0.0292969,0.0201416,0.0161743,0.0158691,0.0140381,0.0283813,0.0393677,-0.0201416,0.0302124,0.0234985
136,4,0.0222778,0.0115967,0.0354004,0.0320435,0.0100708,0.0183105,-0.0283813,0.0445557,0.020752,0.0323486,-0.0311279,0.0350952,0.017395
137,0,0.0186157,0.0366211,0.0286865,0.0411987,0.0314331,0.0393677,0.0546265,0.00640869,0.00366211,0.0308228,-0.0506592,0.022583,0.0161743
137,1,0.0305176,0.020752,0.0112915,0.0280762,0.0756836,0.0408936,0.0250244,0.0119019,0.00305176,0.0259399,-0.0292969,0.0244141,0.015564
137,2,0.00457764,0.0332642,0.0228882,0.0540161,0.0213623,0.0201416,0.0231934,0.0088501,0.0189209,0.0125122,-0.0357056,0.0311279,0.00946045
137,3,0.0250244,0.0650024,0.0292969,0.0338745,0.0271606,0.0167847,0.022583,0.0161743,0.0213623,0.0280762,-0.017395,0.038147,0.0128174
137,4,0.0170898,0.0201416,0.0387573,0.0457764,0.0268555,0.00427246,0.0119019,0.0119019,0.0289917,0.0244141,-0.0137329,0.0332642,0.0344849
138,0,0.00793457,0.0579834,0.0424194,0.0592041,0.0592041,0.0311279,0.0167847,-0.0375366,0.0183105,0.0109863,-0.0213623,0.0344849,0.0320435
138,1,0.0100708,0.0415039,0.0350952,0.0427246,0.0308228,0.0509644,0.0134277,0.0106812,0.00915527,0.0198364,-0.0164795,0.0213623,0.0247192
138,2,-0.00366211,0.0192261,0.0344849,-0.0146484,0.0564575,0.0198364,0.0170898,0.0198364,0.00640869,0.0308228,-0.0219727,0.0238037,0.0271606
138,3,0.00854492,0.0259399,0.0314331,0.0350952,0.0323486,0.0234985,0.0131226,0.0305176,0.0106812,-0.0100708,-0.0201416,0.0250244,0.022583
138,4,0.0183105,0.0137329,0.0305176,0.0314331,0.0265503,0.0314331,0.0231934,0.00915527,0.0247192,0.0137329,-0.0296021,0.00335693,0.0378418
139,0,0.0204468,0.0268555,0.00732422,0.0415039,0.0335693,0.017395,0.0170898,0.0268555,0.0143433,0.0198364,-0.0134277,0.017395,0.0259399
139,1,0.0231934,0.0289917,0.0296021,0.0411987,0.027771,0.0253296,0.0134277,0.00640869,0.0262451,0.039978,-0.0125122,0.00915527,0.039978
139,2,0.0213623,0.0473022,0.0265503,0.0341797,0.0338745,0.0341797,0.0186157,0.0100708,-0.00366211,0.0134277,-0.0204468,0.0579834,0.00976562
139,3,0.0088501,0.0244141,0.0317383,0.0311279,0.0311279,0.0299072,0.017395,0.00610352,0.00244141,0.0494385,-0.0143433,0.0146484,0.0476074
139,4,0.0088501,0.0137329,0.0286865,0.0436401,0.0430298,0.0372314,0.0402832,0.015564,0.000610352,0.027771,-0.0265503,0.020752,0.0378418
140,0,0.0201416,0.0253296,0.00762939,0.0448608,0.0296021,0.0701904,0.0335693,0.015564,0.0482178,0.0143433,-0.015564,0.0247192,0.0390625
140,1,0.0219727,0.0588989,0.0332642,0.0317383,0.0213623,0.0378418,0.0259399,0.00305176,0.00823975,0.000915527,-0.0244141,0.032959,0.0161743
140,2,0.0283813,0.0274658,0.0137329,0.0396729,0.0204468,0.00457764,0.015564,0.0210571,0.0656128,0.0253296,-0.0219727,0.0241089,0.0180054
140,3,0.0610352,0.0314331,0.0286865,0.0436401,0.0231934,0.0204468,0.0238037,0.00549316,0.00823975,0.0354004,-0.0180054,0.0177002,0.0445557
140,4,0.0415039,0.0158691,0.0457764,0.0238037,0.0344849,0.0424194,0.0341797,0.0198364,-0.00518799,0.0640869,-0.0286865,0.0448608,0.000610352
141,0,0.0286865,0.00823975,0.0231934,0.03479,0.0369263,0.0280762,0.0280762,0.0222778,0.0195312,0.0112915,-0.015564,0.00518799,-0.00366211
141,1,0.0531006,0.0338745,0.0265503,-0.0170898,0.032959,0.0210571,0.043335,0.0137329,0.0134277,0.0146484,-0.0201416,0.0186157,0.0234985
141,2,0.0296021,0.0369263,0.00549316,0.0244141,0.0332642,0.0283813,0.0582886,0.00915527,0.00213623,0.00488281,0.0238037,0.0201416,0.0393677
141,3,0.0317383,0.0256348,0.0363159,0.0479126,0.045166,0.0543213,0.0344849,-0.00946045,0.012207,0.0140381,-0.0201416,0.0344849,0.0292969
141,4,0.0164795,0.039978,0.0311279,0.0494385,0.0128174,0.0265503,0.0350952,-0.0210571,0.00976562,0.0112915,0.00457764,0.017395,0.062561
142,0,0.0201416,0.0241089,0.0262451,0.0518799,0.0283813,0.0244141,0.0222778,0.0146484,0.0265503,-0.000305176,-0.0088501,0.00366211,0.06073
142,1,0.0201416,0.0131226,0.0247192,0.0341797,0.0387573,0.0344849,0.015564,0.0317383,0.00946045,0.0204468,0.0143433,0.0317383,0.0100708
142,2,0.0204468,0.0253296,0.0259399,0.0466919,0.0338745,0.0411987,0.010376,0.038147,0.00915527,0.0088501,-0.0344849,0.0177002,-0.00915527
142,3,0.0112915,0.0119019,0.0180054,0.0390625,0.0415039,0.0311279,0.000915527,0.0314331,0.00183105,-0.0344849,-0.0274658,0.0152588,-0.00915527
142,4,0.0192261,0.0189209,0.0198364,0.0335693,0.0125122,0.0271606,-0.015564,0.0524902,0.0198364,-0.00762939,-0.00244141,0.0170898,-0.0521851
143,0,0.0378418,0.0250244,0.0170898,0.11261,0.0357056,0.0323486,0.0302124,0.0488281,0.0180054,0.0411987,-0.0183105,0.0219727,-0.0134277
143,1,0.0204468,0.0302124,0.0231934,0.0335693,0.00671387,0.0161743,-0.00396729,0.0326538,0.00183105,0.0216675,-0.0140381,0.0323486,0.00488281
143,2,0.0366211,0.0350952,0.0231934,0.0354004,0.0317383,0.0802612,0.00793457,0.0320435,0.0634766,0.0183105,-0.012207,0.0531006,-0.0012207
143,3,0.0198364,0.0283813,0.0299072,0.0616455,0.0466919,0.0308228,0.0366211,0.0311279,0.0311279,0.00610352,-0.0268555,0.017395,0.00610352
143,4,0.0241089,0.0146484,-0.0256348,0.0372314,0.0198364,0.0299072,0.00671387,0.0292969,0.0115967,0.0167847,-0.0143433,0.0262451,0.00762939
144,0,0.00152588,0.0250244,0.0482178,0.03479,0.0350952,0.0552368,0.0234985,0.0140381,0.0430298,0.012207,-0.022583,0.0436401,-0.00457764
144,1,0.0183105,0.0265503,0.0186157,0.0436401,0.0357056,0.045166,0.0369263,0.015564,0.0134277,0.0088501,-0.015564,0.000915527,0.0302124
144,2,0.0241089,0.0201416,0.0247192,0.043335,0.0292969,0.0344849,0.0457764,0.0674438,0.00152588,0.00915527,-0.0665283,0.000915527,0.010376
144,3,0.00762939,-0.0256348,0.0259399,0.0363159,0.0637817,0.032959,0.0628662,0.0158691,0.0286865,-0.00976562,-0.0189209,0.012207,0.0195312
144,4,0.0271606,0.0164795,0.0128174,0.0445557,0.0308228,0.0372314,0.0552368,-0.00213623,0.0445557,0.0152588,-0.0198364,0.0213623,0.027771
145,0,0.0350952,0.000610352,0.0219727,0.0283813,0.0698853,0.0241089,0.038147,-0.0515747,0.00976562,0.0183105,-0.0109863,0.0213623,0.0286865
145,1,0.0164795,0.0183105,0.0238037,0.0283813,0.0231934,0.0479126,0.0350952,0.00671387,0.0543213,0.0134277,-0.0317383,0.0119019,0.0180054
145,2,0.015564,0.0201416,0.0115967,0.0234985,0.0250244,0.0585938,0.0183105,0.0320435,0.045166,0.00610352,-0.0271606,0.00823975,0.0253296
145,3,0.0234985,0.020752,0.0140381,0.0509644,0.0332642,0.0427246,0.0189209,0.0418091,0.027771,0.0164795,-0.0256348,0.0238037,0.00549316
145,4,0.0088501,-0.0265503,0.0228882,0.0299072,0.0323486,0.0448608,0.0201416,0.0296021,0.0256348,0.0424194,-0.0198364,0.0131226,0.0357056
146,0,0.015564,-0.0234985,0.0189209,0.0262451,0.0241089,0.0283813,0.0271606,0.0271606,0.00305176,0.017395,-0.0146484,0.0109863,0.0210571
146,1,0.0360107,-0.00732422,0.0244141,0.0280762,0.0326538,0.0311279,0.022583,0.0436401,0.0354004,0.010376,-0.0170898,0.0149536,0.0143433
146,2,-0.00274658,0.0201416,0.022583,0.020752,0.0292969,0.0210571,0.0308228,0.03479,0.0134277,0.00915527,-0.00640869,0.00976562,-0.0836182
146,3,0.0219727,0.0222778,-0.00549316,0.0216675,0.0338745,0.0241089,0.0134277,0.0238037,0.00366211,0.00427246,-0.00366211,0.0289917,0.012207
146,4,0.03479,0.0271606,0.0689697,0.0198364,0.0320435,0.0341797,0.0137329,0.0286865,0.0183105,-0.000610352,-0.0164795,0.00793457,0.0109863
147,0,0.0305176,0.0216675,0.0619507,0.0268555,0.0302124,0.0579834,0.0183105,0.0387573,0.0473022,0.00854492,-0.022583,0.0180054,0.0366211
147,1,0.0302124,0.0128174,0.00213623,0.0134277,0.0189209,0.039978,0.0231934,0.0469971,0.0219727,0.0146484,-0.0125122,0.0131226,0.0360107
147,2,0.010376,0.0262451,0.00518799,0.0143433,0.0387573,0.0384521,0.0323486,0.0299072,0.0247192,0.015564,-0.00518799,0.0146484,0.000610352
147,3,0.00396729,-0.0100708,0.0314331,0.0357056,0.0372314,0.0369263,0.0357056,0.00244141,0.027771,-0.00427246,-0.0192261,0.0143433,0.0305176
147,4,0.00457764,0.0213623,0.0234985,0.015564,0.0418091,0.0338745,0.057373,0.0231934,0.022583,0.000915527,0.00274658,0.012207,0.0244141
148,0,0.0100708,0.00762939,0.00915527,0.0180054,0.0192261,0.0442505,0.00579834,0.0286865,0.020752,0.0195312,-0.017395,0.0213623,0.0439453
148,1,0.0259399,0.017395,0.0115967,0.0259399,0.0384521,0.0271606,0.0283813,0.00762939,0.0192261,0.00976562,-0.0201416,0.0363159,0.0286865
148,2,0.00701904,0.0198364,0.00579834,0.0137329,0.0250244,0.0375366,0.0354004,0.0289917,0.0354004,0.0088501,-0.0128174,0.0109863,0.00823975
148,3,0.0109863,0.0167847,0.0283813,0.0158691,0.0198364,0.0335693,0.0170898,0.0314331,0.0112915,0.00305176,-0.0244141,0.0100708,0.0387573
148,4,0.0128174,0.0274658,0.0106812,0.0216675,0.0271606,0.0372314,0.0283813,0.00823975,0.0296021,0.00274658,-0.0335693,0.0149536,0.0128174
149,0,0.00305176,0.0219727,0.0125122,0.0222778,0.0259399,0.0588989,0.0387573,0.0134277,0.0241089,0.0106812,-0.0222778,0.0131226,0.0244141
149,1,0.0372314,0.0204468,-0.00915527,0.0234985,0.0234985,0.0234985,0.0344849,0.0436401,0.0216675,0.000305176,0.00793457,0.00549316,0.0131226
149,2,0.0134277,0.0189209,0.00457764,0.0204468,0.0460815,0.0454712,0.043335,0.0216675,0.0170898,0.0137329,-0.0149536,0.017395,0.00427246
149,3,0.0198364,0.012207,0.0357056,0.00396729,0.0219727,0.0366211,0.0247192,0.0292969,0.0296021,0.0125122,-0.0137329,0.0112915,-0.0234985
149,4,0.00610352,0.012207,0.0827026,0.0338745,0.0363159,0.0161743,0.039978,0.0192261,0.0772095,0.0250244,-0.0317383,-0.0494385,0.022583
150,0,0.0195312,0.0180054,0.0158691,0.0192261,0.0360107,0.0390625,0.032959,0.0247192,0.0296021,0.0177002,-0.0183105,0.0265503,0.0372314
150,1,0.00244141,0.0140381,0.0140381,-0.0262451,0.0396729,0.017395,0.0738525,0.00366211,0.015564,0.0335693,-0.0262451,0.0140381,0.0341797
150,2,0.0238037,0.00427246,0.0180054,0.0256348,0.039978,0.0305176,0.0332642,-0.000305176,0.0454712,0.0192261,-0.0259399,0.012207,0.0265503
150,3,0.00244141,0.0164795,0.055542,0.0241089,0.0317383,-0.0268555,0.0430298,0.00488281,0.0265503,0.0289917,-0.027771,0.00488281,0.0396729
150,4,0.0256348,0.0448608,0.0247192,0.0210571,0.0979614,0.0335693,0.0445557,-0.0100708,0.0299072,0.0314331,-0.0280762,0.022583,0.0402832
151,0,0.0112915,0.0222778,0.0268555,0.00915527,0.0213623,0.0302124,0.0326538,0.0161743,0.0811768,0.0271606,-0.0256348,-0.0186157,0.0369263
151,1,0.0393677,0.0131226,0.0088501,0.0350952,0.0280762,0.0848389,0.0476074,-0.00183105,0.0436401,0.0387573,-0.027771,0.0146484,0.0296021
151,2,0.0216675,0.0158691,0.0177002,0.000610352,0.012207,-0.0149536,0.0308228,0.0219727,-0.045166,0.0320435,-0.0250244,-0.0500488,0.0268555
151,3,0.0158691,-0.0164795,0.00671387,0.00732422,0.0262451,0.0149536,0.0366211,0,0.045166,0.0247192,-0.0228882,0.0137329,0.0561523
151,4,0.0228882,0.0131226,0.0259399,-0.00854492,0.0527954,0.0311279,0.0234985,0.0192261,0.0296021,0.0164795,-0.0189209,0.010376,0.0665283
152,0,0.00946045,-0.00518799,0.0115967,0.015564,0.0354004,0.0515747,0.0427246,0.0436401,0.0274658,0.0402832,-0.0143433,0.0088501,0.0219727
152,1,0.0265503,0.0427246,0.0161743,0.0146484,0.0656128,0.0372314,0.0369263,0.043335,0.0247192,0.0125122,-0.0256348,0.0210571,0.0268555
152,2,-0.0323486,0.00854492,0.0222778,-0.0167847,0.0335693,0.0177002,0.00793457,0.0253296,0.0234985,-0.0442505,-0.0531006,0.0137329,-0.0363159
152,3,0.0579834,0.0119019,0.0152588,0.067749,0.0289917,0.0247192,0.072937,0.0167847,0.0231934,0.0177002,-0.0106812,0.00427246,0.0152588
152,4,0.0177002,0.020752,0.0219727,-0.0241089,0.0393677,0.0317383,0.0314331,0.0143433,0.0192261,0.0161743,-0.0350952,0.0183105,0.0296021
153,0,-0.0549316,0.0186157,0.000610352,0.00732422,0.03479,0.0238037,0.0201416,0.0695801,0.0198364,0.0308228,-0.0222778,0.0299072,0.0161743
153,1,0.00640869,0.0210571,0.0204468,0.0216675,0.0234985,0.0366211,0.0491333,0.0317383,0.0228882,0.0146484,-0.020752,0.0332642,0.0125122
153,2,0.0262451,0.0387573,0.0204468,0.0131226,-0.0012207,0.0268555,0.0482178,0.0616455,0.0378418,0.0665283,-0.0112915,0.000610352,0.0610352
153,3,0.00579834,-0.0476074,0.0119019,0.0213623,0.0357056,0.0366211,0.0280762,0.0534058,0.0238037,0.0161743,-0.0177002,0.0164795,0.0234985
153,4,0.010376,0.00305176,-0.0183105,0.010376,0.0183105,0.0653076,0.0109863,0.0527954,0.0366211,0.010376,-0.0167847,0.00244141,0.0283813
154,0,0.0137329,0.0112915,0.00762939,0.0167847,0.0238037,0.0119019,0.0375366,0.0296021,0.0213623,0.0167847,-0.0195312,0.0497437,0.012207
154,1,0.0152588,0.00946045,0.00946045,-0.00457764,0.0109863,0.0128174,0.0448608,0.00488281,0.0134277,0.0158691,-0.0241089,0.0177002,0.00640869
154,2,0.0106812,0.0149536,0.0137329,0.00762939,0.0231934,0.0280762,0.0570679,0.032959,0.0311279,-0.0363159,-0.0228882,0.0100708,0.0326538
154,3,-0.00335693,0.0213623,0.0274658,0.00549316,0.0317383,0.0180054,0.0408936,0.0140381,0.0268555,0.0167847,-0.0271606,0.00793457,0.0146484
154,4,0,-0.000305176,0.0219727,0.010376,0.0311279,0.00244141,0.0482178,0.0384521,0.03479,0.0167847,-0.0289917,0.0192261,0.0134277
155,0,-0.0146484,0.0119019,0.0265503,0.0317383,0.0170898,0.0231934,0.0741577,0.0393677,0.0152588,0.022583,-0.0323486,0.0308228,0.0149536
155,1,0.00732422,-0.0466919,0.0106812,0.00762939,0.0262451,0.0244141,0.0402832,0.0137329,0.0149536,0.0250244,-0.0271606,0.0186157,0.0143433
155,2,0.010376,0.0106812,0.022583,0.0170898,0.0323486,0.0189209,0.0436401,0.0317383,0.0393677,0.038147,-0.0140381,-0.0244141,0.0152588
155,3,0.0158691,0.00579834,0.0128174,0.03479,0.0238037,0.0134277,0.0302124,0.0469971,0.0320435,0.0311279,-0.00213623,0.0134277,0.00396729
155,4,0.0167847,0.020752,0.00305176,0.0149536,0.0640869,0.0354004,0.0524902,0.0970459,0.0332642,0.0234985,-0.0100708,0.0134277,0.00732422
156,0,0.0631714,0.0125122,0.0338745,0.0137329,0.0259399,0.0314331,0.038147,0.0378418,0.0250244,0.027771,0.00457764,0.0390625,-0.0109863
156,1,0.03479,0.0125122,0.0186157,0.0143433,0.0262451,0.0238037,0.0302124,0.0576782,0.0222778,-0.00732422,-0.0256348,0.0286865,-0.0262451
156,2,0.0231934,0.000915527,0.00946045,0.0183105,0.0405884,0.0396729,0.050354,0.0558472,0.0314331,0.0164795,-0.0210571,0.0161743,0.00518799
156,3,0.0183105,0.0363159,0.0436401,0.0222778,0.0274658,0.057373,0.0436401,0.0485229,0.057373,0.027771,-0.010376,0.00396729,-0.0189209
156,4,0.0283813,0.00915527,0.0137329,0.0149536,0.0149536,0.0286865,0.0012207,0.0387573,0.0286865,0.0314331,-0.0256348,0.0180054,0.0448608
157,0,0.0100708,0.015564,0.010376,0.0430298,0.0183105,0.0588989,0.0408936,0.0500488,0.0134277,0.0256348,-0.0274658,0.020752,0.00213623
157,1,0.00396729,0.0408936,0.0149536,0.0363159,-0.00610352,0.0238037,0.0592041,0.0363159,0.0152588,0.0271606,-0.0152588,0.0143433,0.00640869
157,2,0.0283813,0.027771,0.0125122,0.0332642,0.020752,0.0344849,0.0296021,0.0189209,0.03479,-0.0238037,-0.0543213,0.0152588,-0.0418091
157,3,0.0289917,0.0210571,-0.00244141,0.00457764,0.00823975,0.0619507,0.0415039,0.0457764,0.015564,0.0344849,-0.0213623,0.00793457,0.00640869
157,4,0.020752,0.00549316,0.0106812,0.00579834,0.0430298,0.0289917,0.0250244,0.0961304,0.0338745,0.0335693,-0.0323486,0.0228882,-0.00488281
158,0,0.0186157,0.0253296,0.00244141,0.00427246,0.0231934,0.0344849,0.0158691,0.0320435,0.0338745,0.0445557,-0.00579834,0.00244141,-0.00183105
158,1,0.0222778,0.0320435,0.0219727,0.00793457,0.0143433,0.0534058,0.0204468,0.0231934,0.010376,0.0430298,-0.0302124,0.0128174,0.00396729
158,2,0.00854492,0.0201416,-0.0161743,0.00244141,0.0183105,0.0561523,0.039978,0.0250244,0.0421143,0.039978,-0.0222778,0.0158691,-0.000915527
158,3,0.0238037,0.0137329,0.0476074,0.0234985,0.0170898,0.0375366,0.0274658,0.0244141,0.0219727,0.0286865,-0.0283813,0.0180054,-0.0286865
158,4,0.00640869,0.0161743,0.0119019,-0.0250244,0.0161743,0.00854492,0.0375366,0.0183105,0.0466919,0.0418091,-0.0262451,0.0354004,0.00518799
159,0,0.0271606,0.0149536,0.0137329,0.0250244,-0.0262451,0.022583,0.00976562,-0.0253296,0.0332642,0.0405884,-0.0396729,0.0241089,0.00152588
159,1,0.00274658,0.0158691,0.0140381,0.0152588,0.0140381,0.0366211,0.0109863,0.0268555,0.0488281,0.0265503,-0.0167847,0.0244141,0.0137329
159,2,0.0271606,0.0238037,0.00854492,0.00823975,0.0534058,0.050354,0.0323486,0.0299072,0.0323486,0.0527954,-0.022583,0.0189209,0.012207
159,3,0.0283813,-0.0317383,0.0183105,0.00183105,0.0363159,0.0372314,0.0360107,0.0137329,0.0320435,0.0585938,-0.0378418,0.083313,0.0140381
159,4,0.0302124,0.0222778,0.00854492,0.00946045,0.015564,0.032959,0.0308228,-0.0213623,0.0427246,0.0665283,-0.0234985,0.0152588,0.00488281
160,0,0.0344849,0.0152588,-0.000305176,0.0494385,0.0195312,0.03479,0.045166,0.0299072,0.0396729,0.0427246,-0.0088501,0.0320435,0.0137329
160,1,0.010376,-0.000305176,0.0128174,0.0143433,0.0149536,0.0143433,0.0949097,0.0189209,0.0396729,0.0119019,-0.0366211,0.0289917,0.0259399
160,2,0.0296021,0.0204468,0.0680542,0.00213623,0.0244141,0.010376,0.0387573,0.020752,0.0415039,0.0268555,-0.0311279,0.0305176,0.0619507
160,3,0.0460815,0.0286865,0.0143433,-0.0302124,0.0219727,0.0204468,0.0491333,0.00823975,0.0344849,0.0302124,-0.0198364,0.017395,0.0192261
160,4,0.0177002,0.0170898,0.0271606,0.00366211,0.00854492,0.0204468,0.0350952,0.0146484,0.0241089,0.03479,-0.038147,0.0262451,0.0244141
161,0,0.0338745,0.0265503,-0.0360107,0.00518799,0.0143433,0.00640869,0.0488281,0.00793457,0.0280762,0.017395,-0.0286865,0.0231934,0.0271606
161,1,0.0274658,0.0271606,0.0161743,0.017395,0.00213623,0.0463867,0.0439453,0.00762939,0.0341797,0.0408936,-0.0292969,0.022583,0.0289917
161,2,0.0335693,0.000305176,0.0137329,0.00335693,-0.000305176,0.0167847,0.0372314,0.0213623,0.0335693,0.038147,-0.0369263,0.0177002,0.0158691
161,3,0.0296021,0.0128174,-0.00305176,0.0296021,0.0189209,0.0274658,0.010376,0.0326538,0.0326538,0.0509644,-0.0323486,0.0210571,0.0238037
161,4,0.0177002,0.0177002,-0.00549316,0.0259399,0.0189209,0.0213623,0.00427246,0.0250244,0.0238037,0.0332642,-0.0231934,-0.0262451,0.0219727
162,0,0.0265503,0.0244141,0.015564,0.0204468,0.0131226,0.012207,0.000610352,-0.00549316,0.03479,0.0360107,0.00701904,0.0219727,0.0186157
162,1,0.0234985,0.00244141,0.0149536,0.0283813,0.0186157,0.0128174,-0.00305176,0.0219727,0.0253296,0.0201416,-0.0357056,0.038147,0.00366211
162,2,0.0546265,0.022583,0.00427246,-0.0238037,0.0180054,0.0180054,0.0485229,0.0341797,0.0360107,0.0216675,-0.0491333,0.0201416,-0.0292969
162,3,0.0283813,0.00915527,0.0222778,0.0167847,0.0424194,0.00152588,-0.00671387,0.055542,0.0234985,-0.00152588,-0.0213623,0.0375366,0.00823975
162,4,0.039978,0.00213623,0.0216675,0.0180054,0.010376,0.0213623,0.000305176,0.0280762,0.0265503,0.0119019,-0.0222778,0.0167847,0.00976562
163,0,0.0143433,0.0112915,0.0012207,0.043335,0.0164795,0.0442505,-0.0579834,0.0302124,0.0231934,0.0338745,-0.0439453,0.0317383,0.0311279
163,1,0.0320435,-0.0302124,0.0189209,0.0216675,0.017395,0.00976562,0.0128174,0.022583,0.0338745,0.0100708,-0.0820923,0.0384521,0.0283813
163,2,0.0341797,-0.0119019,0.020752,0.0134277,0.012207,0.0112915,0.0189209,0.0378418,0.017395,0.010376,-0.0338745,0.0469971,0.0262451
163,3,0.0332642,-0.0012207,0.0244141,0.0170898,0.0149536,0.00457764,0.0198364,0.0393677,0.0222778,0.00640869,-0.00427246,0.0234985,0.0274658
163,4,0.0238037,0.0180054,0.0204468,0.0216675,0.0308228,0.0195312,0.0326538,0.0222778,0.0366211,0.00152588,-0.0289917,0.0186157,0.0262451
164,0,0.0183105,0.0250244,0.00732422,-0.0201416,0.000915527,0.0137329,0.0509644,0.0384521,0.0286865,0.00640869,-0.027771,0.0244141,0.0259399
164,1,0.0473022,0.0363159,0.015564,0.0375366,0.0112915,0.0152588,0.0186157,0.0247192,0.0222778,0,-0.0289917,0.0256348,0.0366211
164,2,0.0219727,0.0616455,0.0210571,0.0201416,0.0143433,0.0253296,0.0238037,0.0161743,0.0369263,0.0128174,-0.0338745,0.0180054,0.000610352
164,3,0.0305176,0.0494385,0.0088501,0.0210571,0.0128174,-0.00671387,0.032959,0.022583,0.0259399,0.00183105,-0.0363159,0.0286865,0.0247192
164,4,0.0354004,0.0350952,0.0253296,0.015564,0.00579834,0.027771,0.0308228,0.0140381,0.0115967,0.0634766,-0.0338745,0.0234985,0.0814819
165,0,0.0396729,0.0689697,0.0167847,0.0314331,0.000610352,0.0198364,0.0323486,0.0335693,0.0234985,0.00274658,-0.0360107,0.0158691,0.0201416
165,1,0.00305176,0.0393677,0.0228882,0.0189209,0.0238037,0.0140381,0.0360107,0.0201416,0.0234985,-0.00305176,-0.0357056,-0.00854492,0.0213623
165,2,0.0280762,0.0323486,0.0146484,0.0177002,0.00854492,0.0265503,0.0405884,0.0189209,0.0296021,-0.0344849,-0.0296021,0.0241089,0.0192261
165,3,0.0326538,0.0411987,0.010376,0.0161743,0.0265503,-0.0192261,0.0296021,0.010376,-0.0231934,0.0137329,-0.0320435,0.0274658,0.0228882
165,4,0.0338745,0.0286865,0.00457764,0.0320435,0.00854492,0.0134277,0.0292969,0.00396729,0.03479,0.0378418,-0.0408936,0.0210571,0.0402832
166,0,0.0405884,0.065918,-0.00274658,0.0201416,0.0253296,0.012207,0.0131226,-0.0454712,0.0186157,0.027771,-0.0354004,0.0100708,0.0210571
166,1,-0.015564,0.0271606,0.0228882,0.022583,0.0125122,0.0167847,0.00579834,0.00488281,0.00701904,0.0286865,-0.0360107,0.0241089,0.0274658
166,2,0.0125122,0.027771,0.0125122,0.0158691,0.0387573,0.0137329,0.0442505,0.062561,0.012207,0.0228882,-0.0335693,0.022583,0.0442505
166,3,0.0314331,0.0262451,0.0271606,0.0286865,0.0189209,0.000915527,0.00732422,0.0216675,-0.0012207,0.0546265,-0.0302124,0.0302124,0.0271606
166,4,0.0265503,0.0283813,0.0244141,0.0338745,0.0378418,0.0140381,0.0286865,0.00671387,0.0192261,0.0421143,-0.0338745,0.0320435,0.0180054
167,0,0.0421143,0.0210571,0.0170898,0.0186157,0.015564,0.0115967,0.0109863,0.020752,0.0585938,0.0524902,-0.0366211,-0.0167847,0.0335693
167,1,0.0354004,0.0360107,0.00976562,0.0317383,0.0302124,0.00427246,0.00823975,0.0253296,0.00732422,0.00579834,-0.0466919,0.0317383,0.0750732
167,2,0.0125122,0.032959,0.0222778,0.0360107,0.0201416,0.00793457,0.00274658,0.038147,0.00854492,0.0653076,-0.0250244,0.0149536,0.0228882
167,3,0.0231934,0.0436401,0.0311279,0.0234985,-0.0253296,-0.00213623,0.00488281,0.0125122,0.0265503,0.0323486,-0.0241089,0.0274658,0.0341797
167,4,0.0088501,0.0323486,0.0204468,0.0735474,0.00549316,0.0222778,0.0149536,0.0320435,0.0131226,0.045166,-0.0262451,0.0201416,0.0180054
168,0,0.0216675,0.0204468,0.032959,0.0170898,0.0415039,0.0128174,0.00579834,0.0674438,0.0137329,0.0274658,-0.0714111,0.0363159,0.0128174
168,1,0.0527954,0.0280762,0.038147,0.0476074,0.0189209,0.027771,0.0161743,0.03479,0.0253296,0.0543213,-0.0332642,0.0143433,0.000915527
168,2,0.0363159,0.0241089,0.0149536,0.0323486,0.0164795,0.0167847,0.0216675,0.0262451,0.0375366,0.0289917,-0.0238037,0.0421143,0.00701904
168,3,0.0320435,0.0354004,0.0170898,0.0308228,0.0238037,-0.0527954,0.022583,0.010376,0.0640869,0.0283813,-0.0292969,0.0320435,0.0238037
168,4,0.0131226,0.0305176,0.022583,0.0338745,0.0158691,-0.0201416,0.0430298,0.0378418,0.00488281,0.0265503,-0.0332642,0.027771,0.0198364
169,0,0.0238037,0.0268555,0.0180054,0.00335693,0.00915527,0.0378418,0.0247192,0.0250244,0.0189209,0.0344849,-0.0247192,0.0201416,0.0158691
169,1,0.0387573,0.0274658,0.0259399,0.00854492,0.0289917,0.017395,-0.00244141,0.0167847,0.0302124,0.00457764,-0.0323486,0.0326538,0.00640869
169,2,0.027771,0.072937,0.0253296,0.010376,0.0631714,0.0189209,0.0430298,0.0598145,0.0323486,0.0537109,-0.03479,0.0259399,0.022583
169,3,0.0286865,0.0326538,0.039978,0.0234985,0.020752,0.0146484,0.0170898,0.0314331,0.0296021,0.0253296,-0.0357056,0.0198364,-0.022583
169,4,0.0314331,0.0323486,0.0088501,0.0280762,0.0247192,0.00244141,0.0088501,0.0158691,0.0259399,0.0299072,-0.03479,0.0271606,0.0259399
170,0,0.0274658,0.0189209,0.00793457,0.00946045,0.0302124,0.0100708,0.0170898,0.012207,0.0280762,0.0222778,-0.045166,0.032959,0.0408936
170,1,0.0323486,0.0354004,0.0219727,0.0164795,0.0201416,-0.000915527,0.0183105,0.0234985,-0.00610352,0.0125122,-0.0701904,0.0161743,0.0216675
170,2,0.088501,0.032959,0.0292969,-0.0274658,0.00732422,0.00366211,0.017395,0.027771,0.0192261,0.0204468,-0.0140381,0.017395,0.0302124
170,3,0.0271606,0.0158691,0.0128174,0.0146484,0.0326538,0.0189209,0.0286865,0.0131226,0.0271606,0.0268555,0.0131226,0.0238037,0.0180054
170,4,0.0244141,0.017395,0.0192261,0.0280762,0.0222778,0.0296021,0.0253296,0.0167847,0.0469971,0.0387573,-0.0296021,0.00244141,0.0335693
171,0,0.0354004,0.0360107,0.0241089,0.0244141,0.0265503,0.0213623,0.0158691,0.0247192,0.0280762,0.0421143,-0.0793457,0.0234985,0.0186157
171,1,0.0323486,0.00854492,0.0180054,0.0167847,0.0210571,0.0262451,0.020752,0.0167847,0.0219727,0.0262451,-0.0213623,-0.0216675,-0.00244141
171,2,0.0338745,0.0253296,0.0512695,0.0134277,0.0198364,0.00823975,0.00762939,0.0189209,0.0183105,0.0363159,-0.0323486,0.038147,0.0408936
171,3,0.0192261,0.0317383,0.0726318,0.0384521,0.0228882,-0.0482178,0.0219727,0.0216675,0.0610352,0.0378418,-0.0421143,-0.0268555,0.0344849
171,4,0.0247192,0.0442505,0.010376,0.0213623,0.0262451,-0.00610352,0.0183105,0.0219727,0.0201416,0.0552368,-0.0262451,0.0405884,0.038147
172,0,0.0289917,0.00854492,0.0299072,0.0210571,0.0164795,0.00915527,0.0338745,0.0234985,0.0213623,0.0186157,-0.0357056,0.0402832,0.0308228
172,1,0.0518799,0.0149536,0.0308228,0.0323486,0.015564,0.0198364,0.0177002,0.0299072,0.0149536,0.0445557,-0.0405884,0.0201416,0.0320435
172,2,0.0299072,0.0323486,0.072937,0.0308228,0.0189209,0.0784302,0.0146484,0.0143433,-0.0338745,0.0460815,-0.0311279,0.0219727,0.0332642
172,3,0.0265503,0.0177002,0.0234985,0.0183105,0.0775146,0.0161743,0.020752,0.0857544,0.0109863,0.0402832,-0.0274658,0.0460815,0.0421143
172,4,0.0369263,0.0320435,0.0369263,0.020752,0.0369263,0.0180054,0.0177002,0.0131226,0.027771,0.038147,-0.0271606,0.0863647,0.0372314
173,0,0.0241089,0.0262451,0.0411987,0.0247192,0.0363159,-0.00793457,0.0189209,0.0204468,0.0250244,0.03479,-0.0234985,0.00579834,0.0262451
173,1,0.0350952,-0.00305176,0.0314331,0.0317383,0.0424194,0.0210571,0.0228882,0.0384521,0.0170898,0.0408936,-0.0296021,0.0601196,0.0338745
173,2,0.0405884,0.0244141,0.0396729,0.0137329,0.032959,0.0344849,0.00549316,0.0228882,0.0186157,0.0332642,-0.0302124,0.0341797,0.0256348
173,3,0.0250244,0.0469971,0.0164795,0.0180054,0.0158691,0.0274658,0.0204468,0.00488281,0.0158691,0.00732422,-0.0552368,0.0360107,0.067749
