Devices
1000
,,Myon - Voltage,,,,,,,,,,,,,
Frame,Sub Frame,GC-M,TA,SOL,VM,VL,RF,BF,ST,GLUT-M,Gracilis,EO,GC-L,Semimembranosus
,,V,V,V,V,V,V,V,V,V,V,V,V,V
1,0,0.0579834,0.000305176,0.0149536,0.027771,0.00793457,0.00976562,0.0280762,0.0109863,0.0250244,1.6922,-0.0137329,0.0100708,0.0012207
1,1,0.0228882,0.0231934,0.000915527,0.0222778,0.0265503,0.0320435,0.027771,0.00488281,0.0143433,1.62384,-0.0192261,0.017395,0.00732422
1,2,0.0238037,0.0128174,0.0134277,0.022583,0.00640869,0.0286865,0.00427246,0.022583,0.027771,1.56891,0.00762939,0.0112915,0.0292969
1,3,0.0201416,-0.0204468,-0.00183105,0.0271606,0.0344849,-0.00915527,0.0299072,-0.00244141,0.0439453,0.12146,-0.0146484,0.0494385,0.0238037
1,4,0.0088501,0.0201416,0.00671387,0.0164795,0.0241089,-0.020752,0.0479126,-0.017395,0.0128174,1.10016,-0.00518799,0.020752,0.0283813
2,0,0.0195312,0.0119019,-0.0274658,0.0134277,0.0100708,0.00946045,0.0152588,-0.000610352,0.0149536,0.888367,-0.0308228,0.0247192,-0.00457764
2,1,0.0167847,0.0234985,0.00579834,0.0177002,-0.0125122,0.0296021,0.0354004,0.0143433,0.0320435,-0.534058,-0.0234985,-0.00701904,0.0140381
2,2,0.032959,0.017395,0.0119019,0.0296021,0.0161743,0.0192261,0.0186157,0.00793457,0.0216675,1.50879,-0.0186157,0.00976562,-0.0234985
2,3,-0.0463867,0.017395,0.012207,0.012207,0.012207,0.0411987,0.0286865,-0.00610352,0.00762939,1.40076,-0.022583,0.00488281,0.0177002
2,4,0.0183105,0.00915527,0.0869751,0.0195312,0.0393677,0.0585938,0.0238037,0.0088501,0.0592041,-0.314026,-0.0314331,0.0292969,0.0378418
3,0,0.0256348,-0.0012207,0.00671387,0.0326538,-0.0186157,0.0250244,0.0479126,-0.0241089,0.0167847,-3.1842,-0.0210571,0.0149536,0.0149536
3,1,0.015564,0.015564,0.00762939,0.0183105,0.00610352,0.015564,0.0268555,0.00640869,0.00793457,1.50085,-0.0265503,-0.032959,0.0222778
3,2,0.0283813,-0.0366211,0.00640869,0.0161743,0.0146484,0.0119019,0.0308228,0.0137329,0.0292969,1.44775,-0.0164795,-0.0268555,0.0274658
3,3,0.0152588,0.0183105,-0.0161743,0.00823975,0.0134277,0.0411987,0.0357056,0.0152588,-0.00610352,1.3858,-0.0274658,0.0256348,0
3,4,0.0195312,0.00732422,0.0338745,0.00732422,0.0219727,0.0613403,0.0274658,0.00671387,0.0698853,1.34247,-0.03479,0.0457764,0.0152588
4,0,0.0323486,0.00610352,-0.0012207,0.00518799,0.022583,0.015564,0.0335693,0.0189209,0.00152588,1.29089,-0.0491333,0.00671387,0.027771
4,1,0.0100708,0.0149536,0.0119019,-0.000610352,0.017395,0.0439453,0.0238037,0.00549316,0.0299072,1.25488,-0.0250244,0.0137329,0.0286865
4,2,0.0128174,-0.00335693,0.015564,0.0177002,0.057373,0.0228882,0.0204468,0.017395,0.027771,1.20209,-0.0189209,0.0256348,0.0189209
4,3,0.015564,0.0198364,0.0158691,0.0158691,0.015564,0.0198364,0.0164795,0.00946045,0.0152588,1.14441,-0.0222778,0.00579834,0.0247192
4,4,0.0698853,0.0268555,0.0128174,0.0387573,0.00854492,0.0192261,-0.012207,0.0250244,0.0234985,1.09192,-0.022583,0.0167847,0.0424194
5,0,0.0125122,0.000610352,0.0161743,0.00610352,-0.0152588,0.0125122,0.0402832,0.0183105,0.0106812,1.04828,-0.0195312,0.0112915,0.0146484
5,1,0.00549316,0.0247192,0.0134277,0.0314331,0.0201416,0.017395,0.0390625,0.020752,0.0115967,0.99762,-0.0250244,0.0167847,0.0170898
5,2,0.0338745,-0.0427246,0.00396729,0.015564,0.010376,0.0445557,0.0161743,0.0500488,0.00518799,0.976257,-0.0259399,0.0119019,0.0216675
5,3,0.0323486,-0.0012207,0,0.0219727,0.00244141,0.0231934,0.0674438,0.015564,0.0183105,-0.362854,-0.0332642,0.015564,-0.0402832
5,4,0.0354004,0.0100708,0.0100708,0.00701904,0.0619507,0.0268555,0.0289917,0.00579834,0.0271606,-3.16833,-0.000915527,0.0234985,0.00854492
6,0,0.0189209,0.0201416,0.00518799,0.0357056,0.0167847,0.0305176,0.0231934,0.0137329,0.0436401,0.242615,-0.03479,0.015564,0.00671387
6,1,0.0234985,0.0115967,0.0183105,0.00854492,0.0186157,-0.0088501,0.0152588,0.0500488,0.032959,-3.17017,-0.0335693,0.0128174,0.0186157
6,2,0.0723267,0.0244141,0.0125122,-0.027771,0.0222778,0.0134277,0.0796509,0.0140381,0.0265503,0.431213,-0.0265503,0.0219727,0.0424194
6,3,0.0234985,0.0198364,0.0222778,-0.00976562,0.015564,0.0250244,0.0259399,0.0238037,0.0296021,1.22955,-0.0338745,0.00915527,0.0814819
6,4,-0.00274658,0.0189209,0.00976562,0.0231934,-0.00427246,0.0143433,0.0259399,0.0256348,0.0189209,1.19232,-0.0192261,0.0344849,0.0152588
7,0,0.0231934,0.0164795,0.00183105,0.0125122,0.0222778,0.0161743,0.0241089,0.0201416,0.0326538,1.12457,-0.0335693,0.0158691,0.0424194
7,1,0.0442505,0.0421143,0.0228882,0.00793457,0.022583,0.0186157,0.0299072,0.0183105,0.0411987,1.09222,-0.0460815,0.0372314,0.0256348
7,2,0.0247192,-0.0280762,0.0186157,0.00396729,0.039978,0.0228882,0.0192261,0.0305176,0.0402832,-0.618896,-0.0125122,0.00488281,0.0213623
7,3,0.032959,0.0473022,0.0131226,0.0210571,0.00610352,0.0216675,0.00366211,0.0259399,0.0192261,-1.73523,-0.0204468,0.0369263,0.00793457
7,4,0.0167847,0.0610352,0.0134277,0.017395,0.0106812,0.0140381,0.0244141,0.0253296,0.0170898,-3.13904,-0.0238037,0.0012207,0.0201416
8,0,0.0411987,0.0231934,0.0317383,-0.0109863,0.010376,0.0259399,0.0115967,0.0167847,0.027771,-1.65314,-0.0289917,0.0192261,0.0146484
8,1,0.0250244,0.010376,0.0100708,0.0189209,0.012207,0.0228882,0.0192261,0.0280762,0.0241089,-3.18726,-0.0408936,0.0271606,0.00610352
8,2,0.022583,0.0344849,0.0183105,0.0128174,-0.00671387,0.0576782,0.0112915,0.0244141,0.0350952,-3.17596,-0.0292969,0.0177002,0.020752
8,3,0.0216675,0.0335693,0.017395,-0.0143433,0.0222778,0.0152588,0.0128174,-0.00640869,0.0344849,-3.17627,-0.0192261,0.0268555,0.0186157
8,4,0.0408936,0.0244141,0.0161743,0.0234985,0.0167847,0.0231934,0.0396729,0.0717163,0.0152588,-3.15857,-0.0213623,0.0204468,0.0314331
9,0,0.027771,0.0228882,0.022583,0.0119019,0.00549316,0.00732422,0.0247192,0.0723267,0.022583,-3.23212,-0.0332642,0.0265503,-0.0195312
9,1,0.0177002,0.0170898,0.0131226,0.0378418,0.0244141,0.0119019,-0.0268555,0.0827026,0.0317383,-3.21014,-0.0436401,0.0231934,0.0262451
9,2,0.0228882,0.0289917,0.00671387,0.0238037,0.0128174,-0.00183105,-0.00244141,-0.00366211,0.0616455,2.13989,-0.0216675,0.038147,0.0106812
9,3,0.0213623,0.0213623,0.0186157,0.0112915,-0.0125122,0.0137329,0.0238037,-0.00396729,0.0402832,0.809326,-0.0131226,0.0326538,0.0308228
9,4,0.0289917,0.0195312,0.0161743,0.0186157,0.0143433,0.0140381,0.0189209,-0.0170898,0.0314331,2.04651,-0.0369263,0.0274658,0.0238037
10,0,0.0369263,0.027771,0.0109863,0.0109863,0.0286865,0.027771,0.0143433,0.0302124,0.0204468,-3.19244,-0.0820923,0.0305176,0.0143433
10,1,0.0247192,0.0335693,0.022583,0.00915527,0.0268555,0.017395,0.0238037,0.0106812,0.0164795,2.09656,-0.0341797,0.0292969,0.00549316
10,2,0.0338745,0.0775146,0.0341797,0.0109863,0.00183105,0.0164795,-0.00671387,0.0506592,0.022583,-2.20581,-0.0271606,0.0366211,0.0445557
10,3,0.0341797,0.022583,0.0177002,0.00549316,0.0216675,0.0192261,0.00762939,0.0683594,0.0421143,0.840454,-0.0326538,0.0161743,0.0180054
10,4,0.0210571,0.0265503,0.00701904,0.00946045,0.00823975,0.0125122,0.0177002,0.0100708,0.0222778,2.06879,-0.0299072,0.0286865,0.0299072
11,0,0.0274658,0.0271606,0.0137329,0.0314331,0.0265503,0.0180054,-0.0146484,-0.0177002,0.0311279,1.99646,-0.0198364,0.0247192,0.0402832
11,1,0.0311279,0.0534058,0.0247192,0.0158691,-0.0418091,0.0244141,0.0128174,-0.0106812,0.0289917,1.92902,-0.0338745,-0.000610352,0.0204468
11,2,0.0323486,0.0314331,0.0259399,-0.0384521,0.0109863,0.0198364,0.00640869,0.00518799,0.0344849,1.92596,-0.0125122,0.0299072,0.000610352
11,3,0.0299072,0.0292969,0.0140381,0.00488281,-0.0296021,-0.000915527,0.00946045,0.017395,0.0326538,1.79535,-0.0350952,0.032959,0.0396729
11,4,0.0344849,0.0192261,0.0280762,0.0231934,0.027771,0.00396729,0.012207,0.0274658,0.03479,1.71143,-0.0228882,0.0286865,0.032959
12,0,0.0238037,0.022583,0.0088501,-0.017395,0.0454712,0.0256348,0.0216675,0.06073,0.0137329,1.64673,-0.0210571,0.0238037,0.0219727
12,1,0.0332642,0.038147,0.00488281,0.0274658,0.0170898,-0.0109863,0.0131226,-0.00549316,0.0234985,1.58447,-0.0283813,0.0128174,0.0247192
12,2,0.0411987,0.0115967,0.022583,-0.0216675,-0.0128174,0.0170898,0.010376,-0.0411987,0.0213623,1.56036,-0.00427246,0.0326538,0.0244141
12,3,0.0268555,0.0231934,0.0167847,0.00488281,0.00183105,0.00915527,-0.0119019,0.00671387,0.0259399,1.46881,-0.0152588,0.0283813,0.0289917
12,4,0.0543213,0.0360107,0.0228882,0.0317383,0.0296021,0.00823975,0.00427246,0.0180054,0.0204468,1.41968,-0.00152588,0.0323486,0.0149536
13,0,0.0274658,0.0189209,0.0271606,0.0299072,0.0143433,-0.0137329,0.0106812,0.0296021,-0.0198364,1.36597,-0.0378418,-0.0317383,0.0314331
13,1,0.0152588,0.00854492,0.0384521,0.0189209,0.0286865,0.00610352,0.038147,0.0253296,0.020752,1.30615,-0.0341797,0.0302124,0.010376
13,2,0.0289917,0.0350952,0.0296021,0.0231934,0.0128174,0.00396729,0.0292969,-0.0253296,0.0161743,1.28906,-0.0274658,0.0344849,0.0231934
13,3,0.0189209,0.0274658,0.0231934,-0.000915527,0.0180054,0.022583,0.0256348,-0.00579834,0.0265503,1.2088,-0.0228882,0.0323486,0.0238037
13,4,0.0564575,0.0363159,0.0314331,0.072937,0.0152588,0.0161743,0.0656128,-0.015564,0.0326538,1.16974,-0.055542,0.0238037,-0.03479
14,0,0.0289917,0.0234985,0.00915527,0.0213623,0.0140381,-0.0320435,0.0164795,-0.00915527,-0.0289917,1.11877,-0.0231934,0.067749,0.0231934
14,1,0.0305176,0.0292969,0.0189209,-0.0161743,0.0268555,0.0192261,0.012207,-0.0506592,0.020752,1.08826,-0.0506592,0.0360107,0.0250244
14,2,0.0228882,0.0210571,0.0369263,0.0183105,0.0189209,0.0177002,0.0167847,0.0012207,0.0274658,1.05835,-0.0332642,0.0354004,0.0259399
14,3,0.0204468,-0.0088501,0.0299072,0.0204468,0.0149536,0.0189209,0.00640869,-0.00671387,0.0341797,-1.28479,-0.0292969,0.0491333,0.0189209
14,4,0.0186157,0.0241089,0.0817871,0.0512695,0.0289917,-0.0442505,0.0320435,0.0131226,0.0643921,-3.1897,-0.0274658,-0.0112915,0.0274658
15,0,0.0299072,0.027771,0.0216675,0.0134277,0.0192261,0.0604248,0.00671387,-0.0128174,0.0109863,0.697632,-0.0253296,0.0265503,0.0369263
15,1,0.020752,0.0247192,0.0222778,0.0253296,-0.00183105,0.00854492,0.0296021,0.0167847,0.0222778,-2.22107,-0.0250244,0.0256348,0.0354004
15,2,0.00671387,0.0192261,0.022583,0.0299072,0.0112915,0.0143433,0.0164795,0.00823975,0.0140381,-1.21368,-0.0253296,0.0323486,0.0375366
15,3,0.0180054,0.03479,0.0280762,0.0228882,0.0180054,0.015564,0.015564,-0.00396729,0.0299072,-1.86493,-0.0268555,0.0326538,0.0341797
15,4,0.0274658,0.0463867,0.0210571,0.0280762,0.0106812,0.00396729,0.0164795,0.00732422,0.0201416,-2.96448,-0.0134277,0.0402832,0.0106812
16,0,0.0274658,0.022583,0.0228882,0.0177002,-0.0210571,0.012207,0.020752,0.0265503,0.0372314,0.917053,-0.0518799,0.0161743,0.032959
16,1,0.0198364,0.0320435,0.0274658,0.0152588,-0.00183105,0.00579834,0.0393677,0.00213623,0.0204468,-0.934143,-0.0732422,0.0183105,0.0317383
16,2,0.00457764,0.0164795,0.0305176,-0.0152588,0.0115967,0.0152588,-0.0268555,0.000610352,0.00152588,0.0637817,-0.055542,0.0317383,0.0149536
16,3,0.0357056,0.0378418,0.022583,0.0259399,0.00457764,0.00701904,0.0299072,0.0131226,0.0256348,-3.21289,-0.0485229,0.0317383,0.0839233
16,4,0.0274658,0.0213623,0.0256348,0.0228882,0.0198364,-0.0552368,0.012207,-0.00213623,0.0360107,-3.19366,-0.0271606,0.00640869,0.0305176
17,0,-0.00518799,0.0259399,0.0244141,-0.0231934,0.00640869,0.0363159,0.00549316,0.00183105,0.0274658,0.205688,-0.0292969,0.0302124,0.0427246
17,1,0.0180054,0.015564,0.0357056,0.00915527,0.0128174,0.0299072,0.022583,0.00488281,0.0152588,-3.18024,-0.0332642,0.0247192,0.0274658
17,2,0.0305176,0.0292969,-0.00335693,0.00549316,0.0317383,-0.038147,0.015564,-0.00488281,-0.010376,1.54968,-0.0314331,0.0527954,0.0271606
17,3,0.038147,0.0335693,0.0344849,0.0213623,0.0152588,0.0131226,0.0158691,-0.00366211,0.0204468,1.69525,-0.0283813,0.0213623,0.039978
17,4,0.0268555,0.0247192,0.00823975,0.0250244,0.0164795,0.0247192,0.0088501,0.000610352,0.0299072,1.68091,-0.0286865,0.0271606,0.0384521
18,0,0.0128174,0.0289917,0.0234985,0.0292969,0.0161743,0.017395,0.0427246,0.00274658,0.0311279,-1.14594,-0.0384521,0.0256348,0.0314331
18,1,0.0350952,0.032959,0.012207,0.0305176,0.0292969,0.0411987,0.0317383,0.00183105,0.0274658,0.410461,-0.0250244,0.0488281,0.0112915
18,2,0.0302124,0.0302124,0.0186157,0.0204468,0.017395,0.0357056,0.0125122,0.0189209,0.0149536,-1.35712,-0.0247192,0.0128174,0.0302124
18,3,0.0247192,0.015564,0.0283813,0.0198364,-0.0210571,0.0253296,0.0106812,0.0323486,0.0292969,-2.64099,-0.0283813,0.0393677,0.0344849
18,4,0.0918579,0.0308228,0.0183105,-0.00579834,0.0186157,0.0210571,0.0479126,0.0793457,0.0195312,-3.237,-0.0448608,0.0204468,-0.00549316
19,0,0.0115967,0.0186157,0.0158691,0.0201416,0.0262451,0.0268555,0.015564,0.105591,0.0143433,-0.483398,-0.020752,0.0222778,0.0292969
19,1,0.0286865,0.0247192,0.0204468,0.0241089,0.0292969,-0.0119019,0.0204468,-0.020752,0.0674438,-0.338135,-0.0506592,0.0274658,0.0210571
19,2,0.022583,0.0152588,0.0177002,0.0128174,0.0247192,0.0161743,0.010376,-0.050354,0.0253296,-3.1778,-0.0350952,0.0228882,0.0265503
19,3,0.0112915,0.0186157,0.039978,0.0515747,0.017395,0.0143433,0.00183105,-0.0521851,0.00335693,-3.18481,0.00549316,0.0494385,0.0335693
19,4,0.0344849,0.0271606,0.0238037,0.0167847,0.0271606,0.0289917,0.017395,-0.0332642,0.00427246,1.81366,-0.0396729,0.0491333,0.045166
20,0,-0.0305176,0.0265503,0.0158691,0.00823975,0.0219727,0.010376,0.0244141,-0.0396729,0.0262451,2.11731,-0.0186157,0.0241089,-0.00610352
20,1,0.0265503,0.0314331,0.0369263,0.0234985,-0.0088501,0.0271606,0.0250244,-0.0671387,0.0161743,2.03888,-0.0216675,0.0146484,0.0222778
20,2,-0.0408936,0.0274658,0.0195312,-0.0134277,0.00976562,0.0228882,0.0317383,-0.0296021,0.0335693,1.54053,-0.0283813,0.0192261,0.0250244
20,3,0.0354004,0.0219727,0.0332642,0.020752,0.0192261,0.0219727,-0.015564,-0.0317383,0.0180054,0.622864,-0.0326538,0.0289917,0.0601196
20,4,0.0161743,0.0238037,0.0250244,0.0268555,0.0192261,0.0241089,0.0296021,-0.0268555,0.00793457,-3.17535,-0.0302124,0.0158691,0.038147
21,0,0.0299072,0.0259399,0.0222778,-0.0012207,0.00152588,0.0442505,0.0143433,-0.0244141,0.0201416,-2.0108,-0.017395,0.0238037,0.0158691
21,1,0.0354004,0.0238037,0.0299072,0.0143433,0.0271606,0.0137329,0.00854492,-0.0299072,0.0143433,2.17438,-0.0317383,0.0253296,0.0537109
21,2,0.0256348,0.0384521,0.0228882,0.0253296,0.0128174,0.027771,0.0128174,-0.0204468,0.0152588,2.02332,-0.0418091,0.0442505,0.0378418
21,3,0.017395,0.0253296,0.038147,0.0238037,0.0170898,0.0244141,0.0231934,-0.0378418,-0.0317383,1.9458,-0.0177002,0.0643921,0.0289917
21,4,0.0283813,0.0271606,0.0445557,0.0210571,0.0213623,0.0119019,-0.00335693,-0.038147,0.00732422,1.94153,-0.0308228,0.0289917,0.0415039
22,0,0.027771,0.0262451,0.0201416,0.0390625,0.0088501,0.0640869,0.00335693,-0.0268555,0.0427246,1.79199,-0.0317383,0.00396729,0.0396729
22,1,0.0286865,0.0180054,0.0192261,0.0216675,0.0265503,0.017395,0.0238037,-0.00488281,0.0372314,1.73065,-0.0390625,0.0289917,0.0323486
22,2,0.0238037,0.083313,0.0271606,0.0134277,0.0088501,0.0231934,0.0244141,-0.0256348,0.00488281,1.68518,-0.0198364,0.0375366,0.0271606
22,3,-0.00579834,0.032959,0.038147,0.0326538,0.0418091,0.0192261,0.0213623,-0.0137329,0.00549316,1.59698,-0.0405884,0.0268555,0.0256348
22,4,0.0317383,0.0369263,0.0311279,0.0253296,0.0671387,0.0344849,0.0195312,-0.0491333,0.015564,1.54236,-0.012207,0.0149536,0.0250244
23,0,0.0436401,0.0271606,0.022583,0.0305176,0.0201416,0.0280762,-0.000305176,-0.00793457,0.0170898,1.47491,-0.0360107,0.0234985,0.0369263
23,1,0.0234985,0.0784302,0.0189209,0.0332642,-0.0305176,0.0482178,0.0109863,-0.0518799,0.00762939,1.42578,-0.0177002,0.0341797,0.0308228
23,2,0.0350952,0.0283813,0.0210571,0.03479,0.00701904,0.017395,0.00671387,-0.00305176,0.00213623,1.37787,-0.0088501,-0.00457764,0.0314331
23,3,0.038147,0.0360107,0.0231934,0.0289917,0.0177002,0.0250244,0.0158691,0.0137329,0.0100708,1.32996,-0.0256348,0.0375366,0.0683594
23,4,0.0164795,0.0289917,0.0143433,0.0195312,0.0177002,0.0332642,0.0250244,-0.0143433,0.0296021,1.26953,-0.0241089,0.0338745,0.0549316
24,0,0.0222778,0.0323486,0.0289917,0.0311279,0.0112915,0.0234985,0.0265503,0.0344849,0.00976562,1.22467,-0.00366211,0.0360107,0.0247192
24,1,0.0949097,0.0393677,0.020752,-0.0189209,0.0250244,0.0198364,0.0143433,0.00396729,0.0125122,1.18378,-0.0332642,0.0360107,0.0259399
24,2,0.0241089,0.0341797,0.050354,0.0280762,0.0112915,0.00671387,0.0152588,0.0387573,0.00244141,1.1322,-0.0906372,0.022583,0.0265503
24,3,0.0250244,0.0244141,0.0250244,0.0558472,0.0164795,0.0137329,0.0219727,0.00549316,0.0210571,1.15936,-0.0289917,0.0247192,0.0854492
24,4,0.0384521,0.0357056,0.0778198,0.0332642,0.0164795,-0.0271606,0.0131226,-0.0146484,0.0473022,1.0437,-0.0238037,0.0439453,0.0250244
25,0,0.0241089,0.022583,-0.0219727,0.0363159,0.0167847,0.010376,0.0280762,-0.00335693,0.0167847,1.0199,-0.0305176,0.0305176,0.0335693
25,1,0.0390625,0.0238037,0.0228882,0.0128174,0.043335,0.0811768,0.00976562,-0.012207,0.0177002,0.975952,-0.0161743,0.022583,0.0210571
25,2,0.0192261,0.0335693,0.0250244,0.0592041,0.0344849,0.020752,0.00457764,0.00518799,0.0125122,0.927124,-0.0195312,0.032959,0.0305176
25,3,0.0408936,0.0292969,0.039978,-0.0299072,0.0238037,0.00518799,-0.0271606,0.00579834,0.00183105,-0.609131,-0.06073,0.0170898,0.0231934
25,4,0.0244141,0.0183105,0.0415039,0.0366211,0.0186157,0.0308228,0.0308228,0.00701904,0.00823975,-0.0619507,-0.0213623,0.0167847,0.0259399
26,0,0.0439453,0.0228882,0.0292969,0.0189209,0.0213623,0.0164795,0.0268555,0.00305176,0.015564,-1.33484,-0.0271606,0.0253296,0.0201416
26,1,0.0341797,0.0323486,0.0396729,0.0289917,0.0317383,0.0320435,0.0234985,0.00366211,0.0234985,-0.920105,-0.0115967,-0.0354004,0.0201416
26,2,0.0344849,0.0195312,0.0244141,0.0354004,0.0265503,0.0186157,0.0305176,0.0100708,0.0183105,-3.18787,-0.0119019,0.0335693,0.0311279
26,3,0.0439453,0.0466919,0.0088501,0.0369263,0.0344849,0.0195312,0.0238037,0.071106,0.0152588,-0.276489,-0.0244141,0.0170898,0.0344849
26,4,0.0378418,0.0204468,0.0357056,0.0308228,0.0335693,0.0186157,0.0167847,0.0152588,0.0253296,-3.19061,-0.0311279,0.0256348,0.0369263
27,0,0.0149536,0.0164795,0.0268555,0.0375366,0.0521851,0.0180054,0.0234985,0.0500488,0.0189209,-3.17627,-0.0521851,0.0299072,0.0469971
27,1,0.0186157,0.0274658,0.0909424,0.0213623,0.0204468,-0.0411987,0.017395,0.00579834,0.022583,-3.17352,-0.027771,0.0637817,0.032959
27,2,0.0259399,0.00762939,0.0115967,0.032959,0.0326538,0.0314331,0.0115967,0.027771,0.0195312,0.726929,-0.0149536,0.0228882,0.0357056
27,3,0.0186157,0.0201416,0.0161743,0.0274658,0.0411987,0.0128174,0.0204468,0.0152588,0.0119019,-2.33978,-0.0256348,0.0723267,0.0170898
27,4,0.0292969,0.03479,0.0335693,0.0228882,0.0378418,0.0180054,0.00488281,0.00915527,0.0112915,1.53442,-0.020752,0.0241089,0.0473022
28,0,0.00640869,0.022583,0.0256348,0.032959,0.0180054,0.0421143,0.0180054,0.00976562,0.0180054,1.8219,-0.0198364,0.0186157,0.0170898
28,1,0.0271606,0.0537109,0.0189209,0.0265503,-0.0268555,0.0222778,0.0317383,0.0823975,0.0134277,-0.40741,-0.0241089,0.0100708,0.0192261
28,2,0.0238037,0.0100708,0.0363159,-0.0354004,0.0262451,0.020752,0.0387573,0.116577,0.0149536,-0.754395,-0.00244141,0.0149536,0.0354004
28,3,0.0131226,0.0112915,0.020752,0.0302124,0.0274658,0.0405884,0.0283813,0.134277,0.0012207,1.43005,-0.0335693,0.0238037,0.0158691
28,4,0.0250244,0.0338745,0.0213623,0.0311279,0.010376,0.0350952,0.022583,0.00518799,0.0222778,1.52924,-0.0292969,0.00946045,0.0466919
29,0,-0.00823975,0.0247192,0.0228882,0.0360107,0.0259399,0.0253296,0.0222778,-0.00335693,0.0210571,1.64673,-0.0244141,0.00610352,0.0283813
29,1,0.0363159,0.0146484,0.043335,0.0305176,0.0289917,-0.0604248,0.0250244,-0.00396729,0.0488281,1.50116,-0.0143433,0.0189209,0.0192261
29,2,0.0186157,0.0088501,0.0393677,0.0241089,0.0512695,-0.0012207,0.020752,-0.0109863,0.012207,-1.32324,-0.00518799,0.022583,0.0274658
29,3,0.0350952,0.0228882,0.0628662,-0.00244141,0.0338745,0.0518799,0.0292969,0.0012207,0.0106812,-3.06824,-0.0228882,0.0100708,0.0268555
29,4,0.0299072,0.0164795,0.0241089,0.0299072,0.0271606,0.0357056,0.0311279,0,0.00640869,-1.67114,-0.0143433,0.012207,0.0238037
30,0,0.0204468,0.0704956,0.0228882,0.0311279,0.0915527,0.0314331,0.0338745,0.0268555,0.0201416,-2.29462,-0.017395,0.00701904,0.0228882
30,1,0.0253296,0.0189209,0.0292969,0.0210571,0.0271606,0.0363159,0.0186157,-0.00305176,0.00701904,-0.517273,-0.0228882,0.010376,0.0262451
30,2,0.0238037,0.0183105,0.0234985,0.0387573,0.0247192,0.0393677,0.0164795,0.00457764,0.0177002,0.1651,-0.0109863,-0.0109863,0.0396729
30,3,0.015564,-0.0152588,0.0234985,0.0238037,0.0210571,0.0234985,0.0177002,0.0125122,0.015564,1.81274,-0.0164795,0.0271606,0.0186157
30,4,0.0164795,0.0177002,0.0259399,0.0256348,0.0344849,0.0283813,0.0167847,0.0106812,0.0228882,1.72455,-0.0549316,0.0143433,0.0128174
31,0,-0.0326538,0.020752,-0.000915527,0.0234985,0.0314331,0.0418091,0.022583,-0.00488281,0.0167847,1.69067,-0.0222778,0.0143433,0.0302124
31,1,0.0195312,0.0231934,0.020752,0.0247192,0.0390625,0.0231934,0.022583,-0.0152588,0.00976562,1.38733,0.0469971,0.0241089,0.0250244
31,2,0.0384521,0.0134277,0.0247192,0.00732422,0.0256348,0.0195312,0.0195312,0.00793457,0.0192261,1.56342,-0.0201416,0.015564,0.0195312
31,3,0.0259399,0.00854492,0.0302124,0.0769043,0.0363159,0.0234985,0.0354004,0.000915527,-0.00488281,1.50574,0.0274658,0.0198364,0.020752
31,4,0.0143433,0.0494385,0.00671387,0.0415039,0.0314331,0.0366211,0.0177002,0.0198364,0.010376,0.492554,-0.0198364,0.0592041,0.0247192
32,0,0.0338745,0.0210571,-0.0265503,0.0375366,0.0289917,0.0280762,0.0241089,0.0149536,0.0146484,-1.34369,-0.0305176,0.0115967,0.0189209
32,1,0.0320435,0.0149536,-0.0314331,0.0341797,0.0402832,0.0430298,0.00946045,0.0189209,-0.0311279,-1.34705,-0.017395,0.0595093,0.0198364
32,2,0.032959,0.0146484,0.0186157,0.0238037,0.0369263,0.0186157,0.020752,0.0088501,0.00488281,1.23779,0.0405884,0.0164795,0.0238037
32,3,0.0231934,0.0210571,0.0204468,0.0369263,0.0311279,0.0323486,0.0164795,0.0247192,0.0125122,1.43341,-0.0170898,0.0109863,0.0158691
32,4,0.0201416,-0.00823975,0.0256348,0.0274658,0.0259399,0.0213623,0.0219727,0.0631714,0.0088501,1.2851,0.0100708,-0.00305176,0.0265503
33,0,0.0134277,0.0262451,0.0100708,0.0326538,0.0177002,0.0665283,0.0296021,0.110168,0.0234985,1.03394,-0.00671387,0.0186157,0.0128174
33,1,0.0170898,-0.0201416,0.0216675,0.0338745,-0.00793457,0.0259399,0.0177002,0.245667,0.0186157,0.7724,-0.010376,0.0292969,0.0360107
33,2,0.0146484,0.0305176,0.0170898,0.0442505,0.0152588,0.0436401,0.0201416,0.146484,-0.0088501,0.538025,-0.0177002,0.0473022,0.0112915
33,3,0.000610352,0.0170898,0.0366211,0.0387573,0.0332642,-0.0189209,0.0439453,0.0958252,-0.0292969,0.284729,-0.0192261,0.0125122,0.0268555
33,4,0.027771,0.00946045,-0.00610352,0.0454712,0.0457764,0.0305176,0.0241089,-0.00549316,0.0500488,0.13092,-0.0180054,0.0424194,0.0369263
34,0,0.0158691,-0.00152588,0.0219727,0.0222778,0.0231934,0.0369263,0.0250244,0.0521851,0.0219727,0.0292969,-0.0234985,0.0283813,0.0128174
34,1,0.0326538,0.00274658,0.0317383,0.0299072,0.0112915,0.0234985,0.00335693,-0.0134277,0.00915527,-0.108032,-0.0189209,0.0146484,0.0268555
34,2,0.0186157,0.0286865,0.050354,0.0268555,0.0320435,0.0320435,0.0210571,-0.0268555,0.0112915,-0.289917,-0.0286865,0.00793457,0.0167847
34,3,0.0244141,0.0149536,0.0366211,0.020752,0.00579834,0.0314331,0.0332642,-0.0128174,0.0146484,-0.357056,-0.0210571,0.0115967,0.0283813
34,4,-0.0314331,0.0186157,0.0195312,0.00366211,0.0283813,0.0189209,-0.0170898,0.0302124,0.010376,-0.481567,-0.0531006,0.00640869,0.0170898
35,0,0.0848389,0.0131226,0.0363159,0.0811768,0.0204468,-0.000305176,0.0311279,0.00854492,0.0100708,-0.545654,-0.0119019,0.0158691,0.0119019
35,1,-0.015564,0.0302124,0.0338745,-0.00457764,0.0411987,0.0146484,0.0314331,0.0335693,0.0262451,-0.641785,-0.0210571,0.0164795,0.0292969
35,2,-0.0192261,0.0283813,0.0183105,-0.0106812,0.0375366,0.0299072,0.0274658,0.0131226,0.0109863,-0.711365,-0.0204468,0.010376,0.0195312
35,3,0.00610352,0.0292969,0.020752,0.0296021,0.0112915,0.0119019,0.0378418,-0.0537109,0.010376,-0.790405,-0.017395,0.0115967,0.0256348
35,4,0.0106812,0.0177002,0.0286865,0.0247192,0.0250244,0.020752,-0.0234985,0.0305176,0.0177002,-0.881653,-0.0146484,0.0183105,-0.0216675
36,0,0.0137329,0.0640869,0.0137329,0.0289917,0.0259399,0.0131226,0.0369263,0.0479126,0.0228882,-0.906677,-0.00976562,-0.00823975,0.0314331
36,1,0.0112915,0.0112915,0.0726318,0.0320435,0.020752,0.0177002,0.0390625,0.043335,0.0189209,-0.934753,-0.0109863,0.0128174,0.0305176
36,2,0.017395,0.0112915,0.0280762,0.0241089,0.0164795,0.03479,0.020752,0.0256348,0.00946045,-0.993042,0.00549316,0.00396729,0.0280762
36,3,-0.0186157,0.0231934,0.0250244,-0.00823975,0.0250244,0.0338745,0.0811768,0.0167847,0.0201416,-1.02264,-0.0140381,0.0109863,0.0189209
36,4,0.015564,0.0231934,0.0158691,0.0198364,0.0299072,0.0360107,-0.00823975,0.0900269,0.0119019,-1.05316,-0.00915527,0.00762939,0.0167847
37,0,0.00762939,0,0.0125122,0.0234985,0.0210571,0.0311279,0.0320435,0.117188,0.0204468,-1.07574,-0.0228882,0.0109863,0.0259399
37,1,0.0158691,0.0216675,0.032959,0.0372314,0.0354004,0.0140381,0.0292969,0.126343,-0.00244141,-1.10413,-0.0100708,0.0189209,0.0390625
37,2,0.0167847,0.0106812,0.00457764,0.0125122,0.032959,0.0253296,0.032959,0.152588,0.00762939,-1.11359,-0.010376,0.0311279,0.0140381
37,3,-0.0131226,0.0262451,0.0140381,0.0311279,0.0274658,0.0259399,0.0311279,0.120239,0.0280762,-1.11725,-0.0109863,-0.00183105,0.0177002
37,4,-0.000915527,0.0170898,0.0302124,0.0192261,0.0238037,0.0265503,0.0271606,0.0137329,0.0634766,-1.1438,-0.0088501,0.0106812,0.0231934
38,0,0.0161743,-0.00152588,0.0375366,0.0280762,0.0360107,0.0372314,0.0256348,-0.10376,0.0210571,-1.13495,-0.010376,0.0259399,0.0250244
38,1,0.0250244,0.0402832,0.0198364,0.0280762,0.0292969,0.0387573,0.0180054,0.0576782,0.0143433,-1.12885,-0.0112915,0.00366211,0.0183105
38,2,0.0186157,0.00976562,-0.0106812,0.017395,0.0256348,0.0250244,0.0253296,0.00976562,0.0549316,-1.14258,-0.0585938,0.00427246,0.0216675
38,3,0.0192261,0.00213623,0.0170898,0.0354004,0.0210571,0.039978,0.0436401,-0.0201416,0.0167847,-1.10016,-0.0137329,0.00396729,0.0189209
38,4,0.0152588,0.0210571,0.0152588,0.0271606,0.0823975,0.0372314,0.0216675,-0.0164795,0.00640869,-1.13068,-0.0164795,0.0119019,0.0256348
39,0,0.0231934,0.00823975,0.000610352,0.0183105,0.0177002,0.000610352,0.0189209,-0.0778198,0.015564,-1.10779,-0.0125122,0.0283813,0.0247192
39,1,0.0317383,0.017395,0.0253296,0.032959,0.0137329,0.0149536,0.0314331,-0.0448608,0.0189209,-1.09863,0.00152588,-0.00366211,0.0134277
39,2,-0.012207,0.0161743,0.0177002,-0.010376,0.0296021,0.0360107,0.0375366,-0.0491333,0.0140381,-1.08826,-0.0228882,0.00427246,0.0189209
39,3,0.0164795,-0.000915527,0.010376,-0.0476074,0.0314331,0.0213623,0.0289917,-0.0537109,0.0259399,-1.0788,-0.0100708,-0.00671387,0.0100708
39,4,0.0088501,0.0088501,0.0140381,0.0128174,0.0195312,0.0280762,0.0216675,-0.045166,0.00488281,-1.07727,-0.0152588,0.0143433,0.00762939
40,0,0.00640869,0.00854492,0.00518799,0.0131226,0.0271606,0.0128174,0.00976562,-0.0473022,0.0228882,-1.08337,-0.0213623,-0.00396729,0.020752
40,1,0.0183105,-0.00823975,-0.00549316,0.010376,0.0259399,0.0308228,0.0262451,-0.0393677,0.0234985,-1.02814,-0.0250244,-0.0137329,0.0186157
40,2,0.0100708,0.0143433,-0.017395,0.0134277,0.0213623,0.0454712,0.0326538,-0.0640869,0.0244141,-1.02081,-0.0161743,0.0170898,0.0186157
40,3,0.015564,-0.00579834,0.0201416,0.0088501,0.0357056,0.0387573,0.0308228,-0.0582886,0.00976562,-0.992432,-0.0189209,-0.00396729,0.000610352
40,4,0.0296021,0.0262451,0.0161743,0.0219727,0.020752,0.020752,-0.000305176,-0.0280762,0.0170898,-0.94696,-0.0234985,0.012207,0.0106812
41,0,0.0335693,0.0146484,0.0189209,0.00854492,0.0360107,0.0299072,0.0384521,-0.00335693,0.017395,-0.966797,-0.0332642,0.0131226,0.03479
41,1,0.00274658,0.00793457,0.0289917,0.0143433,0.0253296,0.0192261,0.0344849,0.0125122,0.0137329,-0.963135,-0.012207,0.0161743,-0.0253296
41,2,0.0088501,0.0549316,0.020752,0.012207,0.0256348,0.0311279,0.0335693,0.00213623,0.0344849,-0.906067,-0.0152588,-0.00335693,0.0109863
41,3,0.0231934,0,0.00396729,-0.0320435,0.0244141,0.0350952,0.0900269,0.00396729,0.0299072,-0.87738,-0.00762939,0.00854492,-0.0457764
41,4,0.0152588,-0.0259399,0.0213623,0.0201416,0.0299072,0.0238037,0.0222778,0.00640869,0.032959,-0.87677,-0.0115967,0.0228882,0.0265503
42,0,0.0161743,0.0189209,0.015564,0.0100708,0.0204468,0.0363159,0.0250244,0.0204468,0.017395,-0.850525,-0.0222778,0.00244141,0.00305176
42,1,0.0247192,0.0305176,0.020752,0.0106812,-0.0344849,0.0350952,0.0256348,0.00640869,0.0274658,-0.820618,-0.015564,0.0247192,0.0195312
42,2,0.0137329,0.0323486,0.0384521,0.0195312,0.0369263,0.0476074,0.0323486,0.0131226,0.0131226,-0.797424,-0.0247192,0.0170898,0.00457764
42,3,0.0582886,0.00274658,0.0112915,0.0375366,0.0186157,0.0350952,0.038147,0.0390625,0.020752,-0.785828,-0.00671387,0.0219727,0.0112915
42,4,0.0265503,0.0326538,0.0115967,0.010376,0.0228882,0.0372314,0.0396729,0.0164795,0.017395,-0.744629,-0.0088501,0.0216675,0.0180054
43,0,0.0146484,0.00854492,-0.012207,0.0231934,0.0366211,0.0656128,0.0289917,0.0112915,0.0384521,-0.736389,0.015564,0.0195312,0.0088501
43,1,0.0149536,0.0164795,0.0244141,0.0231934,0.0335693,0.0378418,0.0265503,0.0128174,0.00915527,-0.728149,-0.0238037,0.0332642,0.00793457
43,2,0.00366211,0.0109863,0.00732422,0.0280762,0.0259399,0.0271606,0.0411987,0.039978,0.0241089,-0.702515,-0.0137329,0.0170898,0.0646973
43,3,-0.0302124,0.020752,0.0177002,-0.0167847,0.0326538,0.0384521,0.0354004,0.0195312,0.0357056,-0.740356,-0.0189209,0.0115967,0.00732422
43,4,0.0131226,0.0158691,0.0183105,0.0195312,0.0125122,0.0262451,0.00457764,0.0177002,0.0262451,-0.725098,-0.00793457,0.015564,0.0012207
44,0,0.0372314,-0.00152588,0.0012207,-0.00854492,0.0274658,0.0402832,-0.0265503,0.0296021,0.0369263,-0.73761,-0.017395,0.0143433,0.0509644
44,1,0.0143433,0.0192261,0.0500488,0.00457764,0.0231934,0.0375366,0.0338745,0.0308228,0.0213623,-0.631104,-0.0259399,-0.000610352,0.0149536
44,2,0.015564,0,0.010376,0.00640869,0.0314331,0.0201416,0.0296021,0.0167847,0.0372314,-0.975647,-0.0363159,0.0170898,0.0250244
44,3,0.0128174,0.0357056,0.0146484,-0.0100708,0.0195312,0.00274658,0.0518799,0.0253296,0.0634766,-2.54272,-0.017395,0.015564,0.00213623
44,4,0.0149536,0.000915527,0.0119019,0.0180054,0.0424194,0.0387573,0.0283813,0.0375366,0.0338745,-0.578613,-0.0268555,0.0183105,0.00823975
45,0,0.0201416,0.0106812,0.0286865,0.020752,0.00946045,-0.0357056,0.022583,0.0436401,0.0750732,-2.8537,-0.0375366,0.0186157,0.00518799
45,1,0.0222778,0.0259399,0.0158691,0.0335693,0.017395,0.017395,0.00915527,0.0372314,0.0430298,-0.281372,-0.0177002,0.0222778,0.0402832
45,2,-0.0476074,0.0292969,0.012207,0.0109863,0.0344849,0.0463867,0.0341797,0.0317383,0.0457764,-2.78748,-0.0164795,-0.00366211,0.017395
45,3,0.0106812,0.0137329,0.0180054,0.0140381,0.00518799,0.0280762,0.0320435,0.0799561,0.0430298,-0.784912,-0.0314331,0.0262451,0.0140381
45,4,0.00274658,0.00488281,0.00854492,0.0283813,0.0189209,0.000305176,0.0408936,0.0326538,0.0341797,0.700378,-0.012207,0.0244141,0.00274658
46,0,0.0161743,0.0183105,0.00823975,0.022583,0.0311279,0.0250244,0.0292969,0.0341797,0.0588989,0.726929,-0.0177002,0.00762939,0.0210571
46,1,0.0143433,0.022583,0.0131226,0.0115967,0.039978,0.0280762,0.0164795,0.0311279,-0.00701904,1.13678,-0.0283813,0.0213623,0.00610352
46,2,0.0415039,0.0131226,0.0268555,0.0292969,0.0192261,0.0201416,0.0183105,-0.015564,0.0408936,0.0860596,-0.0253296,0.0286865,0.00366211
46,3,0.0628662,0.0167847,0.0167847,0.0396729,0.0183105,0.0201416,-0.00244141,0.0119019,0.0112915,0.663147,-0.0360107,0.017395,0.0515747
46,4,0.00488281,0.0268555,0.0241089,0.0393677,0.0158691,0.0296021,-0.027771,0.022583,0.0427246,0.473633,-0.00457764,0.00823975,0.00762939
47,0,0.0195312,0.0222778,0.00427246,0.0152588,0.0231934,0.0222778,0.0375366,0.0320435,0.0354004,0.637817,-0.0158691,0.015564,0.0131226
47,1,-0.0354004,0.0369263,0.0161743,0.0271606,0.0170898,0.0137329,0.0238037,0.0341797,0.0280762,-2.19879,-0.0491333,0.0466919,0.0149536
47,2,0.0262451,-0.0170898,0.0167847,0.020752,-0.00335693,-0.00946045,0.0296021,0.0744629,0.0259399,-2.28973,-0.0338745,0.0146484,0.0109863
47,3,0.0137329,0.0167847,-0.0421143,0.0192261,0.0143433,0.0186157,0.0195312,0.0375366,0.0292969,-2.72247,-0.0195312,0.0177002,0.0238037
47,4,0.00274658,0.0283813,0.0201416,-0.020752,0.0302124,0.0228882,0.0354004,0.027771,0.0396729,-2.66418,-0.015564,0.0289917,0.015564
48,0,0.0393677,0.0167847,-0.0100708,-0.00274658,0.0372314,0.022583,0.0311279,0.0299072,0.0280762,-2.39319,-0.0326538,0.0192261,0.072937
48,1,0.0143433,0.0262451,0.0180054,0.00488281,0.0170898,0.0219727,0.0253296,0.0350952,0.017395,-1.9809,-0.0192261,0.0204468,0.0109863
48,2,0.0143433,0.0265503,0.0213623,0.0201416,0.00396729,0.0262451,0.0247192,0.0344849,0.0778198,-0.388794,-0.0305176,0.0210571,0.017395
48,3,-0.0164795,0.072937,0.0265503,0.0146484,0.0341797,0.0170898,0.0332642,0.0256348,0.0332642,-2.54425,-0.0268555,0.027771,0.00549316
48,4,0.0115967,0.0137329,0.00946045,0.0158691,0.012207,0.000610352,0.0244141,0.0338745,-0.00915527,-2.30133,-0.0125122,0.0704956,-0.00671387
49,0,-0.0268555,0.0259399,0.0186157,0.0527954,0.0296021,0.0164795,-0.0119019,0.0201416,0.0253296,1.71631,0.0213623,0.0289917,0.0604248
49,1,0.0335693,0.0213623,0.0244141,0.0234985,0.0119019,0.0372314,0.0247192,0.0302124,0.0119019,2.96021,-0.0265503,-0.0158691,0.00427246
49,2,0.0125122,0.0201416,0.0350952,0.0115967,0.0115967,0.0375366,0.0341797,0.0299072,0.0292969,3.23456,-0.0149536,0.0253296,-0.000915527
49,3,-0.0411987,0.0405884,0.0183105,0.0262451,0.0180054,0.0302124,0.0250244,0.00732422,0.0384521,2.25983,-0.0149536,0.00946045,0.00946045
49,4,0.0250244,0.0292969,0.00610352,-0.00305176,0.0238037,0.0393677,0.0231934,0.0405884,0.0274658,2.1817,-0.0137329,0.0201416,0.00762939
50,0,0.00946045,0.0177002,-0.015564,0.020752,0.0195312,0.0689697,0.0344849,0.0372314,0.0210571,-1.05927,-0.0305176,0.0595093,0.0244141
50,1,0.0271606,0.0326538,0.000610352,0.0180054,0.0231934,0.0280762,0.027771,0.0448608,0.0204468,-2.52777,-0.0152588,0.00244141,0.0216675
50,2,0.0253296,0.0271606,0.00915527,0.00427246,0.0119019,0.0164795,0.0375366,0.0253296,0.0579834,0.100708,-0.020752,-0.0341797,0.0183105
50,3,0.0283813,0.0210571,0.0210571,0.0195312,0.0271606,0.0234985,0.0238037,0.0518799,0.0201416,1.67358,0.00671387,0.0283813,0.0228882
50,4,0.0177002,0.00488281,0.0100708,0.00457764,0.00793457,0.015564,0.0286865,0.0622559,0.0231934,1.71844,-0.0375366,0.0234985,0.0292969
51,0,0.0262451,0.032959,0.0201416,0.0247192,0.00518799,0.0228882,0.0543213,0.0454712,0.0238037,2.03094,-0.0231934,0.022583,0.0158691
51,1,0.0228882,0.0228882,-0.00823975,0.00854492,0.0115967,0.0332642,0.027771,0.0445557,0.0479126,2.17133,-0.0183105,0.027771,0.0216675
51,2,-0.0222778,0.0354004,0.00579834,-0.0570679,0.00610352,0.0167847,-0.00976562,0.0469971,0.0338745,2.60773,-0.0262451,0.015564,0.00915527
51,3,0.0109863,0.0167847,0.0119019,-0.00457764,0.0192261,0.00976562,0.0283813,0.0430298,0.0271606,2.99744,-0.0286865,0.0213623,0.0247192
51,4,0.0289917,0.0238037,0.00946045,0.0161743,0.0256348,-0.00701904,0.0265503,0.027771,0.0305176,0.150757,-0.0344849,0.0256348,0.0119019
52,0,0.0424194,0.0115967,0.00915527,0.0311279,0.0146484,0.0210571,0.0262451,0.0469971,0.0274658,1.02417,-0.0454712,0.0213623,0.0210571
52,1,0.0378418,0.0262451,0.0198364,0.00457764,0.00549316,0.0161743,0.012207,0.0320435,0.0308228,1.60309,-0.0268555,0.0256348,-0.0149536
52,2,0.0201416,0.0177002,0.0161743,0.00305176,0.0143433,0.0476074,0.0241089,0.0372314,0.0701904,0.248413,-0.0421143,0.022583,0.0265503
52,3,0.0177002,0.0335693,0.0183105,0.00976562,0.00854492,0.0161743,0.0204468,0.0311279,0.0134277,-2.44263,-0.012207,0.0302124,0.0253296
52,4,0.0134277,0.0717163,0.00915527,0.0183105,-0.012207,0.0256348,0.0366211,0.0323486,0.0164795,-2.22961,-0.0167847,0.0238037,0.0198364
53,0,0.0332642,0.0204468,0.0219727,0.0164795,0.00915527,0.020752,0.00610352,0.0305176,0.022583,-2.37305,-0.027771,-0.0228882,0.0201416
53,1,0.00335693,0.0332642,0.0238037,0.0241089,0.0146484,0.0158691,0.0280762,0.0497437,0.0186157,0.428162,-0.0289917,0.0234985,0.0326538
53,2,0.00640869,0.0164795,0.0134277,0.0134277,0.0119019,0.0161743,0.0427246,0.0289917,0.0332642,2.96661,-0.0375366,0.0143433,0.0253296
53,3,0.0354004,0.0109863,0.0305176,0.0146484,0.0143433,0.00244141,0.00915527,0.0219727,0.0442505,2.86682,-0.0375366,0.010376,0.0805664
53,4,0.000610352,0.00732422,0.0268555,-0.0195312,0.0112915,0.017395,0.017395,0.0524902,0.0146484,2.76093,-0.0396729,0.0271606,0.0201416
54,0,0.0839233,0.0259399,0.0137329,-0.0509644,0.0115967,0.0158691,0.0863647,0.0216675,0.0299072,2.63153,-0.0204468,0.0247192,0.0622559
54,1,0.0289917,0.0216675,0.0167847,-0.000305176,0.00701904,0.027771,0.0210571,0.0283813,0.0219727,2.58057,-0.0335693,0.017395,0.0189209
54,2,0.0256348,0.0308228,0.0234985,0.010376,0.00427246,0.0213623,0.0271606,-0.0323486,0.0216675,2.2406,-0.0268555,0.0259399,0.0228882
54,3,0.0198364,0.0238037,0.0296021,0.0292969,0.0128174,0.0115967,0.0195312,0.0216675,0.0125122,1.88049,-0.0286865,0.0012207,0.0134277
54,4,0.0506592,0.0198364,0.0320435,0.0552368,0.00762939,0.0222778,0.0442505,0.020752,0.0228882,1.77826,-0.0323486,0.0515747,0.0152588
55,0,0.0198364,0.0274658,0.0323486,0.00915527,0.000610352,0.0759888,0.0195312,0.012207,0.0552368,1.89819,-0.0115967,-0.0268555,0.022583
55,1,0.0268555,0.0222778,0.0195312,-0.0012207,0.0125122,0.0314331,0.0378418,0.0198364,0.0216675,1.56403,-0.0250244,0.0149536,0.0610352
55,2,0.0283813,0.0393677,0.0128174,0.0109863,0.0143433,0.020752,0.0311279,0.0244141,0.0421143,0.986023,-0.0256348,0.0134277,0.0238037
55,3,0.0418091,0.0222778,0.0137329,0.0146484,0.00549316,0.0192261,-0.0149536,0.0189209,0.0344849,-1.09467,-0.0238037,0.00640869,-0.0262451
55,4,0.0531006,0.0216675,0.0161743,0.088501,0.00579834,0.0140381,0.0799561,0.0158691,0.0274658,-0.936584,-0.03479,0.0234985,0.0527954
56,0,0.020752,0.0286865,-0.00640869,0.0115967,0.0106812,0.0292969,0.0149536,0.0274658,0.0787354,-3.19733,-0.0289917,0.0628662,0.022583
56,1,0.0585938,0.0323486,0.00854492,0.0109863,0.0112915,0.0213623,0.0088501,0.0289917,0.0268555,-2.71088,-0.0180054,0.0546265,0.0119019
56,2,0.0210571,0.0250244,-0.0402832,0.0152588,0.010376,0.0250244,0.0115967,0.00823975,0.0256348,-0.757141,-0.0216675,0.0274658,0.0350952
56,3,0.0317383,0.0274658,0.0177002,0.0296021,0.0143433,0.0247192,0.0146484,0.0268555,0.0189209,2.42401,-0.0238037,0.0186157,0.0289917
56,4,0.0234985,0.0250244,0.0119019,0.0112915,0.0216675,0.0302124,0.0189209,0.0161743,0.0308228,0.74707,-0.017395,0.0265503,0.0296021
57,0,0.0253296,0.0341797,0.0177002,0.0201416,0.012207,0.0262451,0.0283813,0.0213623,0.0183105,-0.884094,-0.0253296,0.0314331,0.0204468
57,1,0.0219727,-0.0195312,0.0271606,0.022583,0.0201416,0.0350952,0.0241089,0.0180054,0.0210571,0.843201,-0.0253296,0.0244141,0.0369263
57,2,0.0140381,0.0149536,-0.0262451,0.0192261,0.0195312,0,0.0317383,0.0109863,0.0708008,0.643921,-0.0186157,0.0540161,0.0302124
57,3,0.0311279,-0.027771,0.020752,0.0259399,-0.0326538,0.0149536,0.0140381,0.0308228,0.0250244,0.603638,-0.0204468,0.0402832,0.0442505
57,4,0.0463867,0.0183105,-0.0244141,0.0140381,0.0112915,0.0137329,0.0186157,0.0167847,0.0201416,0.454102,-0.0396729,0.0143433,-0.00213623
58,0,0.0430298,0.0286865,0.0137329,0.0112915,0.00793457,0.0131226,0.0106812,0.0201416,0.0289917,0.273132,-0.027771,0.0274658,0.0491333
58,1,0.0152588,0.0445557,0.0244141,0.0115967,0.0302124,0.0170898,0.00152588,0.0234985,0.020752,0.241699,-0.0219727,0.0317383,0.0564575
58,2,0.0262451,0.0753784,0.017395,0.00915527,-0.0350952,0.0170898,0.0152588,0.0369263,0.0231934,0.116577,-0.0241089,0.0308228,0.0143433
58,3,0.0256348,0.0274658,0.03479,0.0274658,0.0170898,-0.0125122,0.00854492,0.0793457,0.0317383,-0.0311279,-0.00183105,0.0299072,0.0170898
58,4,0.0289917,0.0149536,0.0326538,0.00366211,0.00915527,0.0161743,0.038147,0.0125122,-0.022583,-1.26068,-0.032959,0.010376,0.0268555
59,0,0.0244141,0.0241089,0.0244141,0.00335693,0.00518799,0.0158691,-0.0143433,0.0167847,0.0234985,-3.1424,-0.038147,0.0238037,0.078125
59,1,0.0241089,0.0256348,-0.00549316,0.0146484,0.0244141,0.0210571,0.0213623,0.0268555,0.03479,-3.16711,-0.0424194,0.0268555,0.0411987
59,2,0.0177002,0.0326538,0.0250244,0.0231934,0.00518799,0.0186157,0.0198364,0.0491333,0.0186157,-1.04462,-0.0354004,0.0296021,0.0845337
59,3,0.0152588,0.0195312,0.0128174,0,0.00823975,0.0180054,0.0344849,0.0210571,0.022583,0.843201,-0.0396729,0.0292969,0.0170898
59,4,0.0473022,0.00946045,0.0088501,0.0244141,-0.000915527,0.0213623,0.0177002,0.0369263,0.0314331,1.50757,-0.0363159,0.0280762,-0.00274658
60,0,0.0317383,0.0283813,0.017395,0.010376,0.00152588,0.000610352,0.0149536,0.0210571,0.0238037,1.3858,-0.0408936,0.0344849,0.012207
60,1,0.0241089,0.0140381,0.0177002,0.00518799,0.0152588,0.0326538,0.0311279,0.0259399,0.0164795,1.19995,-0.0396729,0.0952148,0.0302124
60,2,0.00549316,0.0326538,0.0292969,0.0228882,0.0198364,-0.00152588,0.0262451,0.0320435,0.0231934,1.03943,-0.0256348,0.022583,0.00579834
60,3,0.0234985,0.0115967,0.083313,0.0201416,0.0140381,-0.00946045,0,0.0390625,0.0274658,0.86731,-0.0369263,0.0369263,0.0372314
60,4,0.0360107,0.0366211,0.0271606,0.0161743,0.0305176,0.0109863,0.0231934,0.00213623,0.0231934,0.715332,-0.0366211,0.0299072,0.0341797
61,0,0.0283813,-0.00183105,0.0109863,0.0213623,0.0177002,0.0140381,0.0259399,0.0106812,0.0161743,0.593567,-0.0253296,0.0280762,0.0350952
61,1,0.0231934,0.0848389,0.0198364,0.0115967,0.0372314,0.00335693,0.0268555,0.0436401,0.0170898,0.456848,-0.0308228,0.0244141,0.0302124
61,2,0.0354004,0.0189209,0.0189209,0.00457764,0.00701904,0.0164795,0.0195312,0.0210571,0.0344849,0.338745,-0.0323486,0.0164795,0.0244141
61,3,0.0338745,0.0189209,0.0128174,0.0140381,0.00518799,0.0320435,0.0164795,0.0112915,0.0204468,0.250549,-0.0231934,0.022583,0.0253296
61,4,0.0350952,-0.0088501,0.0439453,0.0213623,0.00335693,0.0088501,0.0128174,0.0540161,0.0186157,0.155029,-0.0311279,0.0500488,0.0350952
62,0,0.039978,0.0170898,0.0671387,0.00366211,0.0302124,0.00579834,0.00793457,0.0558472,0.0186157,0.0552368,-0.043335,0.0137329,-0.0140381
62,1,0.0280762,0.0170898,0.0152588,0.0790405,0.0198364,0.010376,-0.0366211,0.0790405,0.0274658,-0.000305176,-0.0363159,0.0210571,0.0375366
62,2,0.0183105,0.0167847,0.057373,0.0268555,0.0244141,0.0137329,0.0112915,0.0726318,0.0216675,-0.0912476,-0.0262451,0.0292969,0.0405884
62,3,0.00244141,0.0259399,0.0350952,0.0119019,0.0216675,0.015564,0.0115967,0.0454712,0.00854492,-0.144043,-0.0341797,0.0189209,0.0360107
62,4,0.0177002,0.0350952,0.0100708,0.022583,0.015564,0.0088501,0.00946045,0.00457764,0.0271606,-0.187073,0.0137329,0.0262451,0.0430298
63,0,0.0210571,0.0283813,0.00396729,0.0274658,0.000915527,-0.0131226,0.0234985,0.0427246,0.020752,-0.244751,-0.0164795,-0.022583,0.0308228
63,1,0.0317383,0.0219727,0.0335693,0.0393677,0.0186157,0.0183105,-0.0170898,0.0311279,0.0189209,-0.295715,-0.0311279,0.0317383,0.0357056
63,2,0.0210571,-0.00366211,0.0317383,0.0256348,0.0656128,0.00366211,0.0119019,0.0140381,-0.0088501,-0.314331,-0.0146484,0.0430298,0.0393677
63,3,0.0201416,0.020752,-0.0494385,0.039978,0.0161743,0.0244141,0.0228882,-0.00244141,0.0125122,-0.36438,-0.015564,0.0305176,0.0515747
63,4,0.0292969,0.0311279,0.0134277,0.038147,0.0228882,0.0137329,0.0152588,0.00915527,0.0167847,-0.419006,-0.0289917,0.0244141,0.0714111
64,0,0.0305176,0.0210571,-0.00976562,0.0283813,0.0177002,0.0161743,0.0262451,-0.0326538,0.0244141,-0.650635,-0.0280762,0.0405884,0.0344849
64,1,0.0305176,0.0146484,0.0158691,0.0292969,0.0265503,-0.00793457,0.0115967,-0.0201416,-0.0305176,-2.98584,-0.0149536,0.000305176,0.0524902
64,2,0.0320435,-0.0341797,0.0119019,0.0140381,0.0231934,0.0161743,0.00732422,-0.027771,0.0299072,-3.15399,-0.0152588,0.0231934,0.0411987
64,3,-0.00427246,0.0378418,0.0338745,0.0259399,0.0466919,0.00579834,0.0256348,-0.0402832,0.0213623,-0.444641,-0.0247192,0.0115967,0.0372314
64,4,0.0250244,0.0274658,0.022583,0.0469971,0.0201416,-0.000915527,0.0317383,-0.045166,-0.0302124,-2.87964,-0.0112915,0.0582886,0.0402832
65,0,-0.00518799,0.0192261,0.0161743,-0.017395,0.0228882,0.0134277,-0.0314331,-0.0466919,0.0244141,-2.58423,-0.0234985,0.0112915,0.0701904
65,1,0.00946045,0.0250244,0.0350952,0.0424194,0.00518799,0.00976562,0.012207,-0.0296021,0.00610352,-2.86224,-0.017395,0.0268555,0.0305176
65,2,0.0183105,0.0317383,0.0299072,0.0262451,0.0387573,0.0158691,0.0210571,-0.0390625,0.0183105,-0.17334,-0.020752,0.0247192,0.010376
65,3,0.0195312,0.0302124,0.0250244,0.0274658,-0.00579834,0.0170898,0.0234985,-0.0933838,0.0390625,-0.838928,-0.0241089,0.0234985,0.0439453
65,4,0.0354004,0.00732422,0.0332642,0.0234985,-0.0131226,0.0186157,0.017395,0.00762939,0.0204468,0.956726,-0.0177002,0.0390625,0.0491333
66,0,0.0622559,0.0338745,0.043335,0.0354004,0.00793457,0.00823975,0.0164795,-0.0219727,0.0167847,0.984802,-0.0210571,0.0125122,0.039978
66,1,0.0262451,0.0326538,-0.00183105,0.0244141,0.0195312,0.0158691,0.015564,-0.0421143,0.0167847,0.367432,-0.0247192,0.0408936,0.0137329
66,2,0.0350952,0.0344849,0.0289917,0.0338745,0.0204468,0.0177002,0.0601196,-0.0314331,0.00762939,0.56488,-0.0286865,0.0256348,0.0180054
66,3,0.0244141,0.0241089,0.0241089,0.0234985,0.0244141,0.0238037,0.0100708,-0.0259399,-0.0302124,0.319214,-0.0140381,0.067749,0.0314331
66,4,0.0650024,0.0268555,0.0427246,0.0238037,0.0100708,0.0146484,0.0234985,-0.0488281,0.0161743,-0.248108,-0.00427246,0.0317383,0.0241089
67,0,0.0210571,0.0320435,0.0323486,0.0271606,0.0265503,0.00640869,0.0311279,-0.0244141,0.0128174,0.587158,-0.0308228,0.0280762,0.00701904
67,1,0.0268555,0.0534058,0.0241089,0.0372314,0.0244141,0.0112915,0.0238037,-0.0335693,-0.00396729,0.596008,-0.0213623,0.0402832,0.0402832
67,2,0.0292969,0.0311279,0.0512695,0.0213623,0.020752,0.0747681,0.0125122,-0.00244141,-0.0115967,0.233459,-0.0164795,0.0149536,0.0326538
67,3,0.0341797,0.0146484,0.0311279,0.0210571,0.0396729,0.027771,0.0112915,0.00732422,0.0170898,-1.08429,-0.0292969,0.0180054,0.0317383
67,4,0.0256348,0.0534058,-0.0271606,0.0296021,0.0146484,0.0234985,0.0274658,0.00854492,0.022583,-0.0668335,-0.0210571,0.0250244,0.0372314
68,0,0.039978,0.03479,0.0231934,0.0167847,0.0411987,0.00671387,0.0143433,-0.00823975,0.00671387,0.0991821,-0.0372314,0.0256348,0.0338745
68,1,0.00457764,0.0201416,0.00152588,0.0158691,0.022583,-0.0228882,0.0213623,0.00518799,0.0411987,-0.36499,-0.0286865,0.0564575,0.022583
68,2,0.0268555,0.0210571,0.0350952,0.020752,0.0183105,0.0302124,0.00793457,0.0106812,0.0140381,-0.130615,-0.0320435,0.00671387,0.0256348
68,3,0.0424194,0.0302124,0.0280762,0.0527954,-0.0372314,0.0131226,0.00244141,0.0247192,0.00976562,-0.959473,-0.0244141,0.0265503,0.0189209
68,4,0.0247192,0.0222778,0.0344849,0.0241089,0.0308228,0.00579834,0.0131226,-0.0244141,0.00823975,-1.13892,-0.0253296,0.0170898,0.0183105
69,0,0.0231934,0.0323486,0.0271606,0.0228882,0.0256348,0.00488281,0.0241089,0.0106812,0.0158691,-0.510559,-0.0262451,0.0131226,0.0332642
69,1,0.0323486,0.0241089,0.027771,0.0369263,0.0369263,0.0158691,0.0137329,0.0204468,0.017395,-0.263977,-0.0210571,0.0299072,0.0466919
69,2,0.0292969,0.0274658,0.0360107,0.0201416,0.0308228,0.00823975,0.0164795,0.00640869,0.0369263,-0.584412,-0.0320435,0.0308228,0.0308228
69,3,0.0164795,0.0668335,0.0244141,0.020752,0.0344849,0.0241089,0.0183105,-0.020752,-0.00305176,-0.0119019,-0.0131226,-0.00579834,0.0308228
69,4,0.0320435,0.0405884,0.0567627,0.0149536,0.0408936,0.00549316,0.0186157,0.0405884,0.00640869,0.664673,-0.0250244,0.0268555,0.0231934
70,0,0.017395,0.03479,0.0323486,0.0332642,0.00976562,0.015564,0.0100708,0.00793457,-0.000305176,-0.0994873,-0.0216675,0.0479126,0.0338745
70,1,-0.027771,0.0299072,0.0286865,0.0479126,0.0241089,0.0143433,0.0604248,0.00671387,0.0106812,-0.332642,-0.0213623,0.0320435,0.0216675
70,2,0.0271606,0.0286865,0.0250244,0.0289917,0.0274658,0.0259399,0.0201416,0.0161743,0.0012207,-0.260925,-0.0152588,0.0271606,-0.0201416
70,3,0.0308228,0.0170898,0.0250244,0.0274658,0.0314331,0.0158691,-0.0357056,0.0137329,0.00579834,-0.404663,-0.0259399,0.039978,0.0384521
70,4,0.0158691,0.0296021,0.0326538,0.0201416,0.0274658,0.0283813,0.0192261,0.0137329,0.0164795,-0.957336,-0.010376,0.0402832,0.0405884
71,0,0.0424194,0.0210571,0.0180054,-0.0112915,0.0369263,0.0280762,0.0170898,0.0216675,0.020752,-0.443115,-0.0170898,0.032959,-0.0360107
71,1,-0.0198364,0.0396729,0.022583,0.0292969,0.0454712,0.0280762,0.0198364,0.0109863,0.0167847,-0.235901,-0.0247192,0.0308228,0.03479
71,2,0.0177002,0.0616455,0.00793457,0.0390625,0.0183105,0.0228882,0.0152588,0.0143433,0.000610352,-0.168457,-0.0253296,0.0253296,0.0183105
71,3,0.0323486,0.0231934,0.0421143,0.0384521,0.0323486,0.0222778,0.0247192,0.0152588,0.0210571,-0.148315,-0.0262451,0.0308228,0.0372314
71,4,0.0390625,0.0189209,0.0189209,-0.0320435,0.0442505,0.0195312,0.0588989,0.0289917,0.0213623,-0.153809,-0.0579834,0.0238037,0.022583
72,0,0.00793457,0.0268555,-0.00823975,0.0161743,0.022583,0.0891113,0.0262451,0.0164795,0.00701904,-0.152893,-0.0158691,0.0292969,0.0311279
72,1,0.0259399,0.0201416,0.0296021,0.0292969,0.0213623,0.0588989,0.0253296,0.012207,-0.0012207,-0.197449,-0.0308228,0.0219727,0.0335693
72,2,0.0167847,0.0167847,0.00915527,0.0424194,0.0167847,0.0289917,0.022583,0.0256348,0.0256348,-0.105896,-0.0289917,-0.0146484,0.0296021
72,3,0.0152588,0.00152588,0.0259399,0.0302124,-0.0250244,0.0234985,0.022583,0.0521851,0.0222778,-0.0741577,-0.0247192,0.017395,0.0222778
72,4,0.0299072,0.0204468,0.0274658,0.0305176,0.0927734,0.0253296,0.0244141,0.0219727,0.0134277,-0.11261,-0.0228882,0.00457764,0.0274658
73,0,0.0100708,0.0244141,0.0274658,0.0354004,0.0350952,0.0405884,0.0143433,-0.0247192,0.0219727,-0.100708,-0.0164795,0.0167847,0.0289917
73,1,0.0109863,-0.0372314,0.0134277,0.0253296,0.0296021,0.0262451,0.0213623,0.0326538,0.0302124,-0.133362,-0.0274658,0.010376,0.020752
73,2,0.020752,0.0170898,0.0323486,0.0268555,0.0167847,0.0927734,0.022583,0.0262451,0.0692749,-0.10376,-0.0222778,0.0335693,0.0228882
73,3,0.00732422,0.0216675,0.022583,0.0708008,0.0341797,0.0222778,0.0180054,0.0119019,0.0112915,-0.117493,-0.0128174,0.0112915,0.0247192
73,4,0.0186157,-0.0164795,0.0335693,0.0457764,0.0344849,0.0234985,0.012207,0.0222778,0.0286865,-0.132141,-0.0228882,0.0311279,0.0494385
74,0,0.0100708,0.0177002,0.0210571,0.0445557,0.032959,0.0384521,0.0146484,0.0256348,0.0106812,-0.142517,0.0186157,0.0274658,0.0338745
74,1,0.0131226,0.0192261,0.0259399,0.0473022,0.03479,0.027771,0.0518799,0.0271606,0.0192261,-0.13855,-0.06073,0.0219727,0.0588989
74,2,0.0244141,0.0274658,0.0180054,0.0250244,0.0366211,0.0396729,0.00335693,0.0164795,0,-0.376892,-0.0231934,0.0180054,0.000610352
74,3,0.0234985,0.0460815,0.0549316,0.0201416,0.0222778,0.0405884,0.0183105,0.0296021,0.0100708,-0.50293,-0.020752,0.00854492,0.00640869
74,4,0.0283813,0.0213623,0.0311279,0.0204468,0.0375366,0.0283813,0.0271606,0.0259399,0.0177002,-1.21307,-0.015564,0.0256348,0.0683594
75,0,0.0311279,-0.0390625,0.0305176,0.0289917,0.0704956,0.0332642,0.0149536,-0.0268555,0.0195312,-1.37909,-0.0192261,0.0204468,0.0210571
75,1,0.0253296,0.0177002,0.0204468,0.0167847,0.0311279,0.0289917,0.0378418,0.0286865,0.0131226,-1.89362,-0.000915527,0.0119019,0.0164795
75,2,0.0613403,-0.0012207,0.0274658,0.0234985,0.0149536,0.0140381,0.0308228,0.0192261,0.0216675,1.09344,-0.0204468,0.0234985,0.0115967
75,3,0.0180054,-0.022583,0.0283813,0.0259399,0.0613403,0.039978,0.027771,0.0262451,0.0125122,-0.946655,-0.0167847,0.0180054,0.0146484
75,4,0.0320435,0.0402832,0.0222778,0.0302124,0.0283813,0.0366211,0.0186157,0.0106812,0.0283813,-2.58606,-0.0195312,0.0164795,0.0302124
76,0,0.0198364,0.0167847,0.010376,0.0222778,0.0195312,0.0457764,0.0268555,0.0201416,0.0134277,-2.60406,-0.00183105,0.015564,0.0857544
76,1,0.0292969,0.027771,0.0299072,0.0296021,0.00946045,0.0350952,0.0271606,0.0189209,-0.00488281,-2.46979,-0.00396729,0.00427246,0.0299072
76,2,0.0332642,0.0372314,0.0146484,0.0283813,0.0457764,0.0357056,0.0341797,0.0323486,0.00579834,-2.43835,-0.0186157,0.0152588,0.0259399
76,3,0.0131226,0.0338745,0.022583,0.0238037,0.0192261,0.0234985,0.0131226,0.0198364,0.0289917,-2.37274,-0.00640869,0.0231934,0.0396729
76,4,0.0216675,0.0259399,0.015564,0.0286865,0.0582886,0.0219727,0.0201416,0.0137329,0.00640869,-2.31171,-0.0183105,0.0253296,0.020752
77,0,0.0289917,0.0149536,0.0289917,0.0402832,0.0357056,0.0283813,0.00793457,-0.0302124,0.017395,-2.28943,-0.0119019,0.0238037,0.0192261
77,1,0.043335,0.027771,0.0332642,0.0228882,0.0234985,0.0317383,0.0262451,0.0662231,-0.00518799,-2.21497,-0.0158691,0.0302124,0.0231934
77,2,0.0283813,0.0930786,0.0305176,0.0244141,0.0790405,0.0164795,0.0244141,0.0637817,0.0192261,-1.33698,-0.000305176,0.0195312,0.0158691
77,3,0.0289917,0.0189209,0.03479,0.0384521,0.0357056,0.0320435,0.00732422,0.0253296,0.022583,-0.470276,-0.00549316,0.0357056,0.0134277
77,4,0.0357056,0.022583,0.0299072,0.109558,0.0241089,0.0326538,0.0717163,0.0244141,0.00976562,-0.341492,-0.0216675,0.0302124,0.0210571
78,0,0.0292969,0.0509644,0.0286865,0.0375366,0.0460815,0.045166,0.012207,0.0296021,0.0119019,0.903015,-0.0292969,-0.00335693,0
78,1,0.0637817,0.0219727,0.0317383,0.0088501,0.0317383,0.0125122,0.0262451,0.0198364,0.022583,1.1731,-0.0241089,0.0186157,0.0228882
78,2,0.0164795,0.00732422,0.0259399,0.0140381,0.0354004,0.0158691,0.012207,0.0219727,-0.0115967,0.895081,-0.0238037,0.015564,0.0314331
78,3,0.0244141,0.0253296,0.0280762,0.0228882,0.0375366,0.0311279,0.0292969,0.0274658,0.0146484,0.979309,-0.0158691,0.0137329,0.0415039
78,4,0.0228882,0.0222778,-0.012207,0.0292969,0.0146484,0.0299072,0.0134277,0.0280762,0.0189209,3.29224,-0.0228882,0.0164795,-0.00915527
79,0,0.0378418,0.0146484,0.0164795,0.0421143,0.0360107,0.0100708,0.0271606,0.0332642,0.0204468,3.31543,-0.0289917,0.0216675,-0.0158691
79,1,0.050354,0.00793457,0.0238037,0.0283813,0.0289917,0.0247192,0.0335693,0.0375366,0.0234985,3.30322,-0.0335693,0.0219727,0.0283813
79,2,0.0186157,0.0231934,-0.0323486,0.0152588,0.0326538,0.0396729,0.0213623,0.03479,0.0323486,3.30322,-0.022583,0.0177002,0.00457764
79,3,0.0271606,0.017395,0.027771,0.055542,0.0421143,0.0177002,0.0372314,0.0320435,0.0164795,3.30963,-0.0283813,0.0247192,0.0201416
79,4,0.0231934,0.0537109,0.0238037,0.03479,-0.00274658,0.0357056,0.0201416,0.0296021,0.027771,3.28583,-0.0357056,0.0241089,0.0335693
80,0,0.00579834,0.0253296,0.0152588,0.0305176,-0.00213623,0.0305176,0.0564575,0.0668335,0.0219727,1.69708,-0.0158691,0.010376,0.0128174
80,1,0.0183105,0.0231934,0.022583,0.0231934,0.0238037,0.0350952,0.038147,0.0274658,0.00335693,0.907593,-0.0109863,0.0180054,0.0149536
80,2,0.0213623,0.00274658,0.027771,0.0305176,0.0531006,0.00366211,0.0259399,0.0424194,0.032959,0.578003,-0.020752,0.0177002,0.0201416
80,3,-0.00488281,0.0198364,0.0158691,0.00549316,0.0143433,0.0454712,0.0445557,0.0189209,0.0180054,-0.280762,-0.0128174,0.00823975,0.0280762
80,4,0.020752,0.043335,0.0274658,0.0350952,-0.0186157,0.015564,0.0259399,-0.0149536,0.0158691,-0.613098,-0.0128174,0.0201416,0.0125122
81,0,-0.0259399,0.0253296,0.0280762,-0.0201416,0.0228882,0.0241089,0.0616455,0.0305176,0.0296021,-0.153503,-0.0262451,0.010376,0.020752
81,1,0.0231934,0.032959,0.0192261,0.0210571,0.0372314,0.0259399,0.0366211,0.03479,0.00793457,-0.280457,-0.0588989,0.0204468,0.0158691
81,2,0.0283813,0.0424194,0.0186157,0.0308228,0.0274658,0.0338745,0.0274658,0.0338745,0.0192261,0.794983,-0.00579834,0.0177002,0.0292969
81,3,0.0167847,0.0238037,0.0299072,0.0314331,0.0390625,0.0228882,0.0219727,0.0112915,0.00854492,0.0378418,-0.00915527,0.0195312,0.0128174
81,4,0.0210571,0.0189209,0.00946045,0.0109863,0.0189209,0.0231934,0.0283813,0.0375366,0.017395,1.24542,-0.0140381,0.0137329,0.010376
82,0,0.0143433,0.010376,0.0106812,0.0299072,0.0357056,0.0198364,0.0262451,0.0241089,0.0247192,1.29883,-0.00640869,0.0222778,0.0714111
82,1,0.0177002,0.0512695,0.00671387,0.015564,0.0418091,0.0216675,0.0341797,0.0314331,0.0198364,1.61774,-0.0256348,0.0524902,0.0112915
82,2,0.0646973,0.0292969,0.0131226,0.027771,0.015564,0.0292969,0.0375366,0.0152588,0.0231934,-1.42059,-0.00305176,0.00823975,0.0170898
82,3,0.00854492,0.0198364,0.00823975,0.0183105,0.0238037,0.00671387,0.0198364,0.0479126,0.00854492,-2.77618,-0.0247192,0.0402832,-0.0112915
82,4,0.0128174,0.00946045,0.0689697,0.0201416,0.0189209,0.00183105,0.0387573,0.0527954,0.0222778,-1.36444,-0.020752,0.0234985,0.0170898
83,0,-0.00335693,0.0140381,-0.0393677,0.0198364,0.0274658,0.0286865,0.0344849,0.0500488,0.0143433,1.44897,-0.0305176,0.0161743,0.00549316
83,1,0.0198364,-0.00152588,-0.0213623,0.0161743,0.0198364,0.0372314,0.0280762,0.0534058,0.0146484,3.30231,-0.012207,0.015564,0.0100708
83,2,0.0180054,0.0259399,0.0186157,0.090332,0.0177002,0.0280762,0.0418091,0.0537109,0.0231934,3.19794,-0.038147,0.0210571,-0.00579834
83,3,0.0378418,0.0112915,0.0250244,0.032959,0.0180054,0.0289917,0.0357056,0.0588989,0.0881958,3.10944,-0.0119019,0.0570679,0.00488281
83,4,0.0088501,0.00762939,0.0244141,-0.0125122,0.0384521,0.0250244,0.0369263,0.0662231,0.0134277,3.00354,-0.00610352,0.00823975,0.0265503
84,0,0.00640869,0.0100708,0.00762939,0.0167847,-0.00305176,0.0317383,0.0323486,0.0613403,0.0204468,2.91107,-0.00335693,0.0143433,0.0128174
84,1,0.0247192,0.0274658,0.0119019,0.0183105,0.0143433,0.0302124,0.0289917,0.0323486,0.0164795,2.8186,-0.020752,0.0180054,-0.0012207
84,2,0.0183105,0.0183105,0.0869751,0.0335693,0.0302124,0.078125,0.0320435,0.0491333,-0.0280762,2.72308,-0.00762939,0.0375366,-0.000610352
84,3,0.0100708,0.00946045,0.020752,0.0170898,0.0335693,0.0363159,0.0323486,0.0460815,0.078125,2.6236,-0.00366211,0.0131226,0.00793457
84,4,0.00244141,0.020752,0.00762939,0.0341797,0.0170898,0.0247192,0.0427246,0.0469971,0.0247192,2.51129,-0.0265503,0.0213623,-0.00579834
85,0,0.0167847,0.000305176,0.0180054,0.0244141,0.0189209,0.0265503,0.0286865,0.057373,0.0213623,2.46033,-0.0115967,0.015564,0.00915527
85,1,0.0167847,0.0198364,0.0234985,0.0286865,0.0262451,0.0228882,0.03479,0.0289917,0.0244141,2.38007,-0.0216675,0.00610352,0.0231934
85,2,0.0375366,0.0234985,0.0149536,0.0244141,0.0247192,0.027771,0.0357056,0.0390625,0.0167847,1.64917,-0.0408936,0.00762939,0.0164795
85,3,0.00946045,0.0231934,0.00457764,0.0250244,0.0247192,0.050354,0.0360107,0.0305176,0.0338745,-1.48499,-0.0149536,0.0152588,0.00427246
85,4,0.00976562,0.0219727,0.0238037,0.027771,0.0125122,0.0448608,0.0186157,0.00732422,0.0415039,-3.03314,0.0146484,0.000915527,0.0183105
86,0,-0.00457764,0.0161743,0.0204468,0.0411987,0.0241089,0.0506592,0.0289917,0.0653076,0.0393677,-3.18909,-0.0128174,0.0106812,0.00762939
86,1,0.0146484,0.00244141,0.0183105,0.0170898,0.0271606,0.0299072,0.022583,0.0592041,0.0305176,-1.30463,-0.00793457,0.0131226,-0.00823975
86,2,0.022583,-0.00305176,0.0259399,0.0296021,0.0274658,0.017395,0.0256348,0.0152588,0.0274658,-2.07489,-0.0213623,0.00823975,0.0152588
86,3,0.012207,0.0100708,0.0244141,0.0314331,0.017395,0.0250244,0.0375366,0.0177002,0.0259399,2.09381,-0.00915527,0.012207,0.0491333
86,4,0.010376,0.0137329,0.0088501,0.0112915,0.0216675,0.0332642,0.0201416,0.0976562,0.032959,2.36481,-0.0210571,0.0140381,0.0335693
87,0,0.0259399,0.0149536,0.0296021,0.0210571,0.0289917,0.0335693,0.0354004,0.0982666,0.00396729,-2.02637,-0.020752,-0.0314331,0.00427246
87,1,0.000305176,0.0189209,0.0631714,0.0177002,0.0204468,0.0628662,0.0360107,0.0997925,0.0256348,1.03821,-0.0158691,0.0283813,0.0302124
87,2,0.0106812,0.010376,-0.0241089,0.0326538,0.0167847,0.0912476,0.0152588,0.0582886,0.0387573,2.4765,-0.0213623,0.0140381,0.0268555
87,3,0.0204468,-0.00457764,0.0311279,0.0369263,0.0323486,0.0283813,0.0418091,0.00946045,0.0183105,2.38525,-0.0286865,0.0109863,0.0125122
87,4,0.0332642,0.00762939,0.00854492,0.00610352,0.0271606,0.0299072,0.03479,0.0125122,0.0408936,2.30682,-0.0247192,0.0119019,0.00671387
88,0,0.00823975,0.00823975,0.0134277,0.0665283,0.0180054,0.0283813,0.0238037,0.0106812,0.0323486,2.22046,-0.0158691,0.0170898,0.017395
88,1,0.0167847,0.0115967,0.00244141,0.012207,0.0283813,0.0350952,0.0341797,0.0109863,0.0244141,2.14355,-0.0161743,0.0149536,0.0106812
88,2,0.0463867,0.0192261,0.0106812,0.00732422,0.0265503,0.0189209,0.0540161,-0.00274658,0.0335693,2.0343,-0.0146484,0.0170898,0.0668335
88,3,0.0140381,0.00671387,0.0112915,0.0195312,0.0183105,-0.0183105,0.03479,0.0265503,0.0421143,2.01111,-0.0271606,0.0180054,0.0109863
88,4,0.0100708,0.00762939,0.0192261,0.00396729,0.0518799,0.0259399,0.03479,0.0259399,0.0088501,1.94824,-0.017395,0.0595093,0.0149536
89,0,-0.000305176,0.0134277,0.0167847,-0.00549316,0.0137329,0.0177002,0.0418091,0.0296021,0.0177002,1.88721,-0.0201416,0.0158691,-0.0164795
89,1,0.0170898,0.0213623,0.00671387,0.0128174,0.0210571,0.0231934,0.0296021,0.0088501,0.032959,1.63879,-0.0198364,0.00793457,0.0125122
89,2,0.0137329,0.000305176,-0.0189209,0.00671387,0.0286865,0.0872803,0.0302124,0.0109863,-0.00305176,1.37817,-0.0302124,-0.00427246,0.0222778
89,3,-0.0521851,0.0125122,0.00640869,0.017395,0.0201416,0.0292969,0.0305176,0.0125122,0.0265503,1.14502,-0.0213623,0.0274658,0.0125122
89,4,0.020752,0.0012207,0.00793457,0.00488281,0.0152588,0.0396729,0.0341797,-0.00976562,0.0323486,0.943298,-0.0088501,0.00946045,0.0201416
90,0,-0.00946045,0.00183105,0.0177002,0.0170898,0.0161743,0.0283813,0.0674438,0.00701904,0.0228882,0.721741,-0.0259399,0.0204468,0.0140381
90,1,0.0296021,0.0180054,0.0143433,0.00152588,0.022583,0.0152588,0.0180054,0.00823975,0.0305176,0.55603,-0.0296021,0.0274658,0.0308228
90,2,0.0177002,0.00762939,-0.0289917,0.0164795,0.0332642,0.0259399,0.0286865,0,0.020752,0.382996,-0.0198364,0.00213623,0.0265503
90,3,0.012207,0.00518799,0.00640869,0.0183105,0.00274658,0.0350952,0.0384521,-0.00244141,-0.00335693,0.22522,-0.0335693,0.0119019,0.020752
90,4,0.0143433,0.00640869,0.0332642,0.0274658,0.0204468,0.0234985,0.0299072,0.00488281,0.0357056,0.0350952,-0.0256348,0.0320435,-0.00396729
91,0,0.0128174,0.071106,0.0170898,0.0149536,0.0881958,0.0283813,0.0189209,-0.0146484,0.0372314,-0.038147,-0.0338745,0.0244141,0.0268555
91,1,0.0198364,0.020752,0.0234985,0.00488281,0.0109863,0.020752,0.0302124,0.00427246,0.0418091,-0.149536,-0.0244141,-0.0405884,0.0125122
91,2,0.0332642,0.0088501,0.00579834,0.0167847,0.0183105,0.0115967,0.0247192,0.133057,0.0341797,-0.270386,-0.0231934,0.0231934,0.0134277
91,3,0.00854492,0.00610352,0.010376,0.000610352,0.0180054,0.0170898,0.0390625,0.0350952,0.078125,-0.371399,-0.0253296,0.0299072,0.0161743
91,4,0.010376,0.0241089,0.012207,0.0167847,0.0360107,0.0918579,0.0457764,-0.0112915,0.0717163,-0.427551,-0.027771,0.0186157,0.017395
92,0,0.0146484,0.0405884,-0.0140381,0.0186157,-0.00366211,0.0262451,0.027771,0.010376,0.0317383,-0.498962,-0.0192261,0.0408936,0.00854492
92,1,0.00701904,0.00152588,-0.00671387,0.045166,0.00396729,0.0323486,0.03479,0.0186157,0.0238037,-0.585022,-0.0320435,0.0280762,0.0280762
92,2,0.015564,0.0219727,0.0149536,0.00518799,0.0112915,0.0106812,0.0216675,0.0405884,0.0314331,-0.635681,-0.050354,0.027771,0.0231934
92,3,-0.00183105,0.0137329,0.0189209,0.0134277,0.0238037,0.0198364,0.0476074,0.000610352,0.0299072,-0.643005,-0.0177002,0.0204468,0.0244141
92,4,0.0152588,0.0650024,-0.00976562,0.0186157,-0.0582886,0.0283813,0.0415039,0.0271606,0.0271606,-0.648804,-0.0231934,0.0140381,0.00762939
93,0,0.0112915,0.0219727,0.0012207,0.0128174,0.0012207,0.0189209,0.0204468,0.00518799,0.0408936,-0.621033,-0.0311279,0.0653076,0.0161743
93,1,0.0177002,0.0109863,0.0366211,0.010376,0.0332642,0.0234985,0.0012207,-0.0161743,0.0274658,-0.611572,-0.0238037,0.0219727,0.0622559
93,2,0.00915527,0.0161743,0.0167847,-0.0158691,0.0115967,0.0106812,0.0308228,-0.00823975,0.020752,-0.529175,-0.0299072,0.0216675,-0.017395
93,3,0.0183105,0.0134277,0.0119019,0.0131226,0.0152588,0.0201416,0.0302124,0.0222778,0.0146484,-0.58075,-0.0201416,0.0228882,0.0222778
93,4,0.0357056,0.015564,0.0115967,-0.0512695,0.0131226,0.0143433,0.0537109,-0.000610352,0.0320435,-0.568237,-0.0134277,0.0195312,0.0268555
94,0,0.0186157,0.0164795,0.0115967,0.00305176,0.0143433,0.0149536,0.032959,0.124207,0.0228882,-0.857239,-0.00946045,0.0140381,0.0161743
94,1,0.00549316,0.0134277,0.0161743,0.0137329,-0.0143433,0.00762939,-0.00244141,0.171204,0.0338745,-0.945129,-0.0323486,0.00610352,0.0650024
94,2,0.0170898,0.0137329,0.00915527,0.0128174,0.015564,0.0198364,0.0274658,0.158691,0.0762939,-0.942078,-0.0396729,0.0158691,0.0140381
94,3,0.0170898,0.0115967,-0.017395,0.0234985,0.0228882,0.0527954,0.0250244,0.140381,0.0512695,-0.957947,-0.0338745,0.0360107,0.0299072
94,4,0.0177002,0.0189209,0.0140381,0.00915527,0.0161743,0.0137329,0.0265503,0.113831,0.057373,-0.962524,-0.0408936,-0.00579834,0.0299072
95,0,0.0186157,0.020752,0.0177002,0.0241089,0.0100708,0.0189209,0.0350952,0.104675,0.0256348,-0.950928,-0.0280762,0.0198364,0.0509644
95,1,0.0222778,0.0338745,0.0152588,0.0134277,0.0134277,0.0167847,0.0189209,0.0906372,0.0311279,-0.956421,-0.0311279,0.0134277,0.062561
95,2,0.0210571,-0.0286865,0.017395,0.0292969,0.0250244,0.0134277,0.0296021,0.0616455,0.0311279,-0.953369,-0.0350952,0.0219727,0.0213623
95,3,0.0192261,0.0222778,0.0695801,0.0201416,-0.00427246,0.0317383,0.0161743,0.00457764,0.0396729,-0.956421,-0.0265503,0.012207,-0.0222778
95,4,0.0183105,0.0305176,0.0152588,0.0131226,0.012207,0.0210571,0.0253296,-0.0900269,0.0335693,-0.943909,-0.0265503,0.0128174,0.0140381
96,0,0.0271606,0.0170898,0.0112915,-0.0131226,0.00579834,0.015564,0.0262451,-0.0778198,0.0317383,-0.930176,-0.0213623,0.00946045,0.0125122
96,1,0.0192261,0.022583,0.0183105,0.0183105,0.0268555,-0.00183105,0.020752,0.0320435,0.03479,-0.924683,-0.0109863,0.020752,0.0152588
96,2,0.0341797,0.0125122,0.0195312,0.0219727,0.0167847,0.0137329,0.0140381,-0.0238037,0.0219727,-0.926208,-0.0506592,0.0302124,0.0128174
96,3,0.0427246,0.0149536,0.0219727,0.0125122,0.0189209,0.0195312,0.00762939,0.00640869,0.0247192,-0.892944,-0.0772095,0.0195312,0.00854492
96,4,0.0210571,0.0256348,-0.0216675,0.0186157,0.00762939,0.0878906,0.0286865,-0.0463867,0.0292969,-0.887146,-0.0296021,0.0250244,0.0112915
97,0,0.0247192,0.00823975,0.0195312,0.017395,0.0140381,-0.000610352,0.0167847,-0.0695801,0.0241089,-0.873413,-0.0445557,0.0238037,0.0164795
97,1,0.0198364,-0.0384521,0.0308228,0.00976562,0.0265503,0.0317383,0.0338745,-0.0515747,0.0183105,-0.87677,-0.0216675,-0.0177002,0.00488281
97,2,0.0289917,0.0161743,-0.0366211,0.0271606,0.00549316,0.032959,0.027771,-0.0482178,0.0268555,-0.854187,-0.0234985,0.0253296,0.0201416
97,3,0.0524902,0.0262451,0.0088501,0.0192261,0.00701904,0.00732422,0.0125122,0.0286865,0.0296021,-0.842896,-0.0393677,0.00823975,0.0299072
97,4,0.0289917,0.057373,0.010376,0.00732422,-0.0405884,0.0146484,0.0286865,0.0265503,0.0119019,-0.812073,-0.0411987,0.0183105,-0.00335693
98,0,0.0210571,0.0210571,0.0271606,-0.0222778,0.0338745,0.0210571,0.0439453,0.0558472,0.00488281,-0.803528,-0.0296021,0.00488281,0.0100708
98,1,0.0198364,0.0216675,0.0152588,0.00488281,0.00274658,0.0161743,0.0384521,0.0500488,0.0299072,-0.776367,-0.0402832,0.0131226,0.012207
98,2,0.0253296,0.0219727,-0.00762939,0.0244141,0.00274658,0.0216675,0.0219727,0.0436401,0.0305176,-0.780334,-0.0442505,0.0286865,0.0259399
98,3,0.0366211,0.0265503,0.032959,0.0289917,0.00152588,0.0128174,0.0323486,0.0274658,0.0384521,-0.751343,-0.0289917,0.0473022,0.0268555
98,4,0.0137329,0.0210571,0.00671387,0.0335693,0.012207,-0.0234985,0.0125122,0.0479126,0.0149536,-0.729065,-0.0262451,0.0509644,0.0265503
99,0,0.0308228,0.022583,0.00854492,0.022583,0.0167847,-0.00274658,0.0234985,0.0320435,0.0491333,-0.705872,-0.0299072,0.0390625,0.0106812
99,1,0.0289917,0.0305176,-0.0515747,0.0271606,0.0131226,-0.0311279,0.0128174,0.045166,0.017395,-0.700378,-0.0286865,0.0115967,0.0286865
99,2,0.0244141,0.0311279,0.00427246,0.0109863,0.0244141,0.0183105,0.0332642,0.0369263,0.0311279,-0.921326,-0.0238037,0.0247192,0.0222778
99,3,0.0344849,-0.0140381,0.0283813,0.0247192,-0.0149536,0.0143433,0.0128174,-0.000610352,0.027771,-0.697021,-0.0125122,0.0262451,0.0234985
99,4,0.0247192,0.0286865,0.0317383,0.0177002,0.00549316,0.0183105,0.0164795,0.0424194,0.0234985,-1.02234,-0.00915527,0.0238037,-0.000915527
100,0,0.0338745,0.0241089,0.00976562,0.0100708,-0.00701904,0.0192261,-0.0088501,0.0445557,0.0445557,-1.0022,-0.0320435,0.017395,0.0195312
100,1,0.0286865,-0.0280762,0.0271606,0.0247192,-0.0228882,0.0219727,0.0213623,0.0143433,0.00579834,-1.2619,-0.022583,0.0210571,0.0241089
100,2,0.0360107,0.0411987,0.017395,0.0180054,0.015564,0.0140381,0.027771,0.0195312,0.0210571,-2.9895,-0.0674438,0.0161743,0.0265503
100,3,0.0387573,0.0238037,0.0119019,-0.0183105,0.00640869,0.020752,0.0372314,0.0308228,0.0177002,-3.00903,-0.0161743,0.0201416,0.00701904
100,4,0.0219727,0.0305176,0.0146484,0.0274658,0.0213623,0.0286865,0.0146484,0.0396729,0.0357056,-2.83844,-0.0582886,0.0289917,0.0183105
101,0,0.0183105,0.0198364,0.0134277,0.0238037,0.00854492,0.0335693,0.0164795,-0.0744629,0.0128174,-0.132446,-0.0256348,-0.000915527,0.0167847
101,1,0.032959,0.0244141,-0.0012207,0.0241089,0.0112915,0.0186157,0.0210571,-0.0671387,0.0231934,-2.80334,-0.00793457,0.0299072,0.00732422
101,2,0.0302124,0.0662231,0.0112915,0.017395,0.00549316,0.0161743,0.0283813,-0.0640869,0.0369263,-2.78656,-0.0350952,0.00579834,0.0289917
101,3,0.0308228,0.0244141,-0.0253296,-0.0106812,0.0170898,0.0134277,0.0137329,-0.043335,0.0332642,-0.255127,-0.0491333,0.0341797,0.0363159
101,4,0.0247192,0.0280762,0.0726318,0.00488281,0.0161743,-0.045166,0.0219727,-0.0436401,0.0646973,0.644226,-0.027771,0.0271606,0.0222778
102,0,0.0183105,0.020752,0.0146484,0.0161743,-0.0177002,0.0183105,0.0222778,-0.0289917,0.0286865,-2.7063,-0.0460815,0.0149536,0.0320435
102,1,0.0305176,0.017395,0.0183105,0.0128174,0.00671387,0.0088501,0.00488281,-0.0167847,0.0134277,-2.66266,-0.0500488,0.0274658,0.0256348
102,2,0.0582886,0.0317383,0.050354,0.0146484,0.0167847,-0.00457764,0.0320435,-0.00244141,0.000915527,-2.59705,-0.0463867,0.0213623,0.00579834
102,3,0.0344849,0.039978,0.067749,0.00793457,0.022583,0.012207,0.0259399,-0.0164795,0.0231934,-2.53052,-0.0378418,0.0204468,0.0424194
102,4,0.0360107,0.0219727,0.0244141,0.0152588,0.00610352,0.0265503,-0.0125122,0.0106812,0.0238037,-2.48596,-0.0469971,0.0326538,0.0378418
103,0,0.0360107,0.0204468,0.0210571,0.0253296,0.0146484,0.0292969,0.0180054,-0.0149536,0.039978,-2.4115,-0.0314331,0.0576782,0.0283813
103,1,0.0305176,0.0341797,0.0152588,0.0119019,0.0183105,0.00396729,0.0170898,-0.00671387,0.0357056,-1.33759,-0.0305176,-0.015564,0.0259399
103,2,0.0497437,0.0143433,0.0305176,0.0213623,0.0143433,-0.0216675,0.010376,0.00305176,0.00823975,3.27789,-0.0357056,0.0354004,-0.000305176
103,3,0.0234985,0.0286865,0.0418091,0.0112915,0.00213623,0.00152588,0.0201416,0.00152588,-0.0140381,2.74048,-0.0405884,-0.0146484,0.0366211
103,4,0.0418091,0.0106812,0.0204468,0.00732422,0.0177002,0.0192261,0.017395,-0.0289917,0.0167847,3.25104,-0.0180054,0.0354004,0.0244141
104,0,0.0231934,0.0323486,0.0280762,0.0134277,0.00915527,0.0231934,0.0109863,-0.00762939,0.0134277,-0.317688,-0.032959,0.0372314,-0.0134277
104,1,0.0302124,0.0820923,0.0109863,0.0259399,0.0534058,0.0296021,0.0256348,0.00946045,0.0320435,-2.58087,-0.0341797,0.0180054,0.017395
104,2,0.0576782,0.03479,0.0268555,0.00396729,0.0146484,0.0140381,0.0125122,0.00366211,0.020752,-2.36023,-0.0271606,0.0238037,0.0195312
104,3,0.0494385,0.0222778,0.0216675,0.0137329,0.0228882,0.0167847,0.0228882,-0.00518799,0.0280762,-2.46918,-0.0350952,0.012207,0.0305176
104,4,0.0335693,0.00518799,0.0238037,-0.0244141,0.0177002,0.00183105,0.0186157,-0.000610352,0.0244141,-2.40662,-0.0286865,0.0430298,0.0234985
105,0,0.0793457,0.0167847,0.0183105,0.00610352,0.0100708,0.0112915,0.00946045,0.00549316,0.0149536,2.77069,-0.0253296,0.0283813,0.0234985
105,1,0.0296021,0.0564575,0.0512695,0.0216675,0.0436401,0.0268555,0.0302124,0.0109863,0.0228882,3.31665,-0.0396729,0.0231934,0.0286865
105,2,-0.00640869,0.0128174,0.0274658,0.0588989,0.00701904,-0.000915527,0.0646973,0.0247192,0.00701904,2.75513,-0.0231934,0.0164795,0.0274658
105,3,0.0308228,-0.00793457,0.0213623,0.00274658,0.010376,0.0119019,0.0482178,0.0204468,0.0210571,0.826111,-0.0262451,0.0195312,0.0228882
105,4,0.0338745,0.0250244,0.0720215,0.0183105,0.0210571,-0.0372314,0.0201416,0.0112915,0.0402832,1.40869,-0.0323486,0.0302124,0.0482178
106,0,0.0411987,0.032959,0.0396729,0.0112915,0.0198364,0.0100708,0.0088501,-0.00305176,0.0112915,-1.40717,-0.0479126,0.0341797,0.0344849
106,1,0.0845337,0.0341797,0.0268555,-0.045166,0.00640869,-0.00854492,0.0250244,0.0238037,0.027771,-2.58301,0.015564,0.0158691,0.0592041
106,2,0.0366211,0.0378418,0.0231934,0.012207,0.020752,-0.00579834,0.0204468,0.0158691,0.03479,-2.3645,-0.0308228,0.0518799,0.0592041
106,3,0.000305176,0.0366211,0.03479,0.0228882,0.0164795,0.0119019,0.017395,0.0109863,0.0234985,-2.47772,-0.0445557,0.0448608,0.0360107
106,4,0.0305176,0.0299072,0.0384521,0.0167847,0.0204468,0.0311279,0.0311279,0.020752,0.0830078,3.31879,-0.0234985,0.0088501,0.0308228
107,0,0.0299072,0.0494385,0.032959,0.0210571,0.00640869,0.0137329,0.0125122,0.0161743,0.015564,3.30292,-0.0280762,0.0314331,0.0332642
107,1,0.0418091,0.0457764,0.0158691,0.0411987,0.0241089,0.0189209,0.0177002,0.038147,0.017395,3.31177,-0.0286865,0.0112915,0.0286865
107,2,0.0332642,0.0366211,0.0408936,0.0201416,0.0219727,0.0247192,0.0247192,0.0271606,-0.0146484,-1.61469,-0.0250244,-0.0219727,0.0177002
107,3,0.0393677,0.0552368,0.03479,0.00793457,0.0137329,0.0149536,0.00701904,0.0332642,0.00915527,-2.04437,-0.0189209,0.0271606,0.0292969
107,4,0.0256348,0.0265503,0.0167847,0.0357056,0.00793457,-0.00366211,0.0143433,0.0167847,0.0195312,-2.59766,-0.0222778,0.0131226,0.0299072
108,0,0.0387573,0.0305176,0.0311279,0.0253296,0.0210571,0.00152588,0.0195312,0.0256348,0.020752,-2.53815,-0.0787354,0.0308228,0.03479
108,1,0.038147,0.0308228,0.017395,0.0164795,0.00579834,0.00610352,0.0183105,0.0250244,0.0244141,-2.47742,-0.0390625,0.0152588,0.071106
108,2,0.0186157,0.0341797,0.020752,0.0299072,0.0927734,0.00640869,0.039978,0.0424194,-0.00305176,-2.41486,-0.0338745,0.0244141,0.0326538
108,3,0.0299072,0.0262451,0.0299072,0.0314331,0.0186157,-0.00640869,0.017395,0.0366211,0.0219727,-2.36755,-0.0289917,0.0198364,0.010376
108,4,0.0250244,0.0305176,0.0317383,-0.0158691,0.0366211,0.0128174,-0.0152588,0.0115967,0.00640869,-1.99646,-0.0234985,0.0283813,0.0344849
109,0,0.0363159,0.0158691,0.0387573,0.0558472,0.0198364,0.00427246,-0.00366211,0.0485229,0.0143433,-2.27081,-0.0283813,0.0344849,0.03479
109,1,0.0112915,0.0204468,0.0344849,-0.0332642,0.0219727,0.0146484,0.045166,0.038147,0.012207,3.30841,-0.032959,0.0463867,0.022583
109,2,0.0378418,0.0372314,0.0158691,0.0213623,0.045166,0.00762939,0.0234985,0.00976562,0.00732422,2.49969,-0.0109863,0.012207,0.0289917
109,3,0.032959,0.0204468,0.0289917,0.0299072,0.0250244,0.0106812,0.0323486,0.0256348,0.00946045,3.30658,-0.0369263,0.0286865,0.0839233
109,4,0.0387573,0.0714111,0.0448608,0.0198364,-0.0335693,0.03479,0.0167847,0.0454712,0.00396729,3.30322,-0.0296021,0.00976562,0.0238037
110,0,0.0292969,0.0253296,0.0375366,0.0286865,0.0213623,-0.0247192,0.0161743,0.0482178,0.0439453,3.29376,-0.0183105,0.022583,0.0442505
110,1,0.0366211,0.0402832,0.0350952,0.0250244,0.0268555,0.0134277,0.0177002,1.46545,0.00976562,3.3194,-0.0210571,0.0341797,0.012207
110,2,0.0274658,0.0323486,0.0283813,0.0250244,0.0183105,0.00396729,0.0210571,2.15576,0.0234985,3.03101,-0.00915527,0.0302124,-0.00366211
110,3,0.0308228,0.0308228,0.0341797,0.0384521,0.020752,0.0231934,-0.00579834,1.47949,0.012207,-1.5448,-0.0247192,0.0201416,0.0488281
110,4,0.0805664,0.0228882,0.0445557,0.0262451,0.0216675,0.0161743,0.0210571,0.887146,0.0317383,1.92017,-0.0231934,0.0338745,0.0448608
111,0,0.0415039,0.0537109,0.027771,0.0448608,0.000610352,0.0198364,0.0283813,0.852051,0.00366211,-2.73773,-0.0222778,0.0244141,0.0323486
111,1,0.0088501,0.0167847,0.0228882,-0.0378418,0.0115967,0.0247192,-0.0167847,0.83252,0.015564,-2.64832,-0.015564,0.0311279,0.0350952
111,2,0.0265503,0.0604248,0.0280762,0.0360107,0.0354004,0.0234985,0.0161743,0.818176,0.00640869,0.846252,-0.00610352,0.032959,0.0259399
111,3,0.0286865,0.0234985,0.0164795,0.0146484,0.0305176,0.00518799,0.0143433,0.803528,0.0137329,-2.60101,-0.0128174,0.0650024,0.0332642
111,4,0.0238037,0.0595093,0.0231934,0.0567627,0.0448608,0.0164795,0.0299072,0.776672,0.00793457,3.23364,-0.0265503,0.0219727,0.0247192
112,0,0.032959,0.0848389,0.050354,0.0305176,0.0488281,0.0296021,0.0119019,0.789185,0.0180054,2.78961,-0.0195312,0.0259399,0.0424194
112,1,0.0875854,0.0183105,0.0183105,0.0378418,0.0494385,0.0161743,0.0189209,0.740967,0.0222778,-1.75415,-0.0100708,0.0238037,0.0299072
112,2,0.0302124,0.0280762,0.03479,0.0161743,0.0268555,0.0262451,0.0192261,0.718079,0.0265503,2.03125,-0.0231934,0.0238037,-0.00335693
112,3,0.0317383,0.0350952,0.0210571,0.0302124,0.0308228,0.0421143,0.00701904,0.677185,0.0363159,3.30353,-0.0161743,0.0164795,0.0268555
112,4,0.0259399,0.0393677,0.0231934,0.0335693,0.0375366,0.0192261,0.00946045,0.690613,0.0134277,3.29559,-0.0213623,0.0491333,0.0354004
113,0,0.0201416,0.03479,0.0234985,0.038147,0.0323486,0.0259399,0.0195312,0.672913,0.0192261,3.25256,-0.0149536,0.0268555,0.0323486
113,1,0.0219727,0.0158691,0.0231934,-0.00640869,0.0299072,0.017395,0.0183105,0.658569,0.0244141,-2.89886,-0.0198364,0.0234985,0.0363159
113,2,0.0134277,0.0219727,0.0247192,-0.0115967,0.0289917,0.0213623,0.0317383,0.657654,0.0189209,1.44867,-0.0430298,0.0283813,0.0302124
113,3,0.0302124,0.0286865,0.0274658,0.0567627,0.0418091,0.0170898,0.0253296,0.637207,0.0250244,3.06183,-0.0564575,0.0192261,0.0125122
113,4,0.0259399,0.03479,0.0222778,0.0241089,0.0271606,0.0100708,0.0146484,0.622559,0.0222778,1.95831,-0.020752,0.0360107,0.0292969
114,0,0.0149536,-0.0167847,0.0241089,0.03479,0.00915527,0.0146484,0.0161743,0.612183,0.0222778,-2.4057,-0.0241089,0.022583,0.0314331
114,1,0.0152588,0.027771,0.0390625,0.0274658,0.020752,-0.0112915,0.00488281,0.591431,0.00915527,-2.89764,-0.032959,0.0244141,0.0552368
114,2,0.0210571,0.00274658,0.0299072,0.0323486,0.0253296,0.0158691,0.0183105,0.561523,0.0262451,-2.81281,-0.0204468,0.0268555,0.0320435
114,3,0.027771,0.0268555,0.0299072,0.0357056,0.0198364,0.0186157,0.0137329,0.557251,0.0140381,-0.229797,-0.0164795,0.027771,0.0268555
114,4,0.017395,0.0286865,0.0268555,0.0302124,0.0311279,0.0326538,0.0131226,0.565186,0.015564,-2.69318,-0.020752,0.0247192,-0.0366211
115,0,0.0524902,0.0244141,0.0244141,0.0314331,0.0231934,0.0210571,0.0231934,0.545654,0.0204468,1.97418,-0.027771,0.0164795,0.0317383
115,1,0.00152588,-0.0152588,0.0311279,0.0253296,0.0735474,0.0198364,0.0213623,0.506287,0.0152588,-2.66205,-0.0198364,0.0161743,0.032959
115,2,0.0360107,0.0320435,0.0259399,0.0283813,0.0415039,0.00366211,0.0210571,0.519714,0.0186157,-2.60376,-0.0341797,0.0189209,0.022583
115,3,0.0164795,0.0189209,0.027771,0.0289917,0.0814819,0.00793457,0.0219727,0.514221,0.0271606,-2.54333,-0.0241089,0.0262451,0.0238037
115,4,0.0250244,0.012207,0.0268555,0.0241089,0.0146484,0.0146484,0.0125122,0.506897,0.0216675,-2.49054,-0.0119019,0.0497437,0.0231934
116,0,0.0210571,0.0384521,0.00671387,0.0274658,0.0402832,0.0286865,0.0149536,0.491333,0.00732422,-2.43774,-0.0262451,0.0283813,0.0363159
116,1,0.0247192,0.0592041,0.0219727,0.0219727,0.0457764,0.0247192,0.0280762,0.478821,0.0131226,-2.37579,-0.0247192,0.022583,0.0238037
116,2,-0.0442505,0.0259399,0.0259399,-0.0280762,0.0466919,0.0183105,0.022583,0.488892,0.00640869,-2.2995,-0.0204468,0.0289917,0.0262451
116,3,0.0265503,0.0244141,0.0512695,0.0259399,0.0302124,0.0238037,0.0280762,0.466003,0.00793457,-2.19635,-0.0131226,0.0253296,0.00549316
116,4,0.0186157,0.0161743,0.0256348,0.0283813,0.0390625,0.0317383,0.0204468,0.448303,0.0231934,-2.13989,-0.000610352,0.0244141,0.0305176
117,0,0.00488281,0.0238037,0.0265503,0.0192261,0.0222778,0.00427246,0.0363159,0.440369,0.0131226,-2.05139,-0.0238037,0.0332642,0.0350952
117,1,0.0192261,0.0299072,0.0338745,0.0161743,0.0100708,0.0482178,0.0286865,0.434265,0.00946045,-1.98059,-0.0158691,0.0201416,0.0332642
117,2,0.0186157,0.0335693,0.0253296,0.0137329,0.0262451,0.0302124,0.0146484,0.415039,0.00305176,-1.55273,-0.0192261,0.0201416,0.0244141
117,3,0.0332642,0.0201416,0.0195312,0.0592041,0.022583,0.0231934,0.00823975,0.426941,0.020752,3.34351,-0.00976562,0.0238037,0.0491333
117,4,0.0332642,0.0180054,0.0201416,0.0183105,0.0314331,0.0360107,0.0134277,0.406189,0.010376,3.29956,-0.010376,0.0244141,0.0283813
118,0,0.0280762,0.000305176,0.0637817,0.0372314,0.0204468,0.0836182,0.0183105,0.395813,0.00671387,3.30658,-0.0183105,0.0323486,0.0177002
118,1,-0.00244141,-0.0164795,0.0299072,0.0436401,0.0222778,0.0296021,0.0396729,0.384521,0.0204468,3.30383,-0.0149536,0.03479,0.0231934
118,2,0.0201416,0.0146484,0.00946045,0.0149536,0.0268555,0.0292969,0.0244141,0.388184,0.0894165,3.29956,-0.0192261,-0.0259399,0.0271606
118,3,0.0195312,0.0378418,0.0305176,0.0231934,0.0180054,0.0244141,0.0262451,0.373535,0.00976562,3.29498,-0.0164795,0.0244141,0.0326538
118,4,0.0137329,0.0238037,0.00549316,0.0213623,0.0323486,0.00549316,0.0506592,0.373535,0.0588989,3.29498,-0.0271606,0.0265503,0.0344849
119,0,0.0115967,0.0241089,0.0299072,0.0247192,0.0299072,0.043335,0.0274658,0.357971,0.0143433,3.3075,-0.0213623,0.0140381,0.0424194
119,1,-0.0424194,0.0222778,0.0302124,0.0305176,0.027771,0.0363159,0.0106812,-0.378723,0.0140381,3.29742,-0.0256348,0.0308228,0.0167847
119,2,0.0183105,0.0192261,0.0253296,0.0408936,0.0372314,0.00946045,0.0265503,-0.626831,0.0131226,3.29895,-0.0350952,0.0183105,0.0308228
119,3,0.0253296,0.0228882,0.0192261,0.0265503,0.0323486,0.0363159,0.0164795,-0.61615,0.0088501,3.21686,-0.0311279,0.0198364,0.0421143
119,4,0.0183105,0.0405884,0.0192261,0.0250244,0.0601196,0.0219727,0.0161743,-0.610046,0.0384521,3.11951,-0.0180054,0.020752,0.0189209
120,0,0.0100708,0.0350952,0.0189209,0.0143433,0.0271606,0.0369263,0.0268555,-0.591736,-0.0280762,3.013,-0.00946045,0.0231934,0.0244141
120,1,0.0140381,0.00213623,0.0244141,0.0360107,0.0213623,0.0259399,0.00762939,-0.560608,0.00335693,2.90802,-0.0180054,0.0222778,0.045166
120,2,0.0543213,0.0204468,0.012207,0.0222778,0.0222778,0.00488281,-0.0424194,-0.531616,0.0143433,2.84454,0.0164795,0.0204468,0.0186157
120,3,0.0302124,0.0244141,0.0219727,-0.0167847,0.0369263,0.0149536,0.0717163,-0.526733,0.0189209,2.72095,-0.015564,0.0299072,0.0222778
120,4,0.022583,0.0177002,0.032959,0.0244141,0.0338745,0.0299072,0.0296021,-0.511475,0.0161743,2.58057,-0.0210571,0.0183105,0.00793457
121,0,-0.0253296,0.022583,0.0268555,0.0247192,0.0244141,0.0335693,0.0119019,-0.50293,0.0140381,2.54181,-0.0396729,0.010376,0.0253296
121,1,0.00549316,-0.0183105,0.022583,0.0286865,0.0201416,0.027771,0.0280762,-0.45929,0.0115967,2.45056,-0.0131226,0.027771,0.0210571
121,2,0.0134277,0.00671387,0.00640869,0.0430298,0.0231934,0.0289917,0.0231934,-0.475464,0.0323486,2.34985,-0.0250244,0.0231934,0.0350952
121,3,-0.0088501,0.0274658,0.0244141,-0.00640869,0.0366211,0.0302124,0.0204468,-0.463562,0.0271606,2.29095,-0.0302124,0.0286865,0.0210571
121,4,0.0164795,0.00823975,0.010376,0.0369263,0.0317383,0.032959,0.0296021,-0.465088,0.0231934,2.19635,-0.0164795,0.0393677,0.0744629
122,0,0.0128174,0.0241089,0.0323486,0.0286865,0.0430298,0.0317383,0.0308228,-0.435486,0.0143433,2.146,-0.00457764,0.03479,0.0201416
122,1,0.0180054,0.0286865,0.0241089,0.0283813,0.0402832,0.0286865,0.0189209,-0.427551,-0.0286865,2.0871,-0.0299072,-0.0189209,0.0210571
122,2,0.0180054,-0.00823975,0.03479,0.0195312,0.0088501,0.0411987,0.0256348,-0.413513,0.017395,2.01721,-0.0259399,0.0170898,0.0186157
122,3,0.0152588,0.0271606,0.00671387,0.0192261,0.0372314,0.0268555,0.0238037,-0.407104,0.0131226,1.93451,-0.0115967,-0.0302124,0.00762939
122,4,0.010376,0.0201416,0.0164795,-0.0314331,0.027771,0.0250244,0.0622559,-0.410461,0.0177002,1.83472,-0.0424194,0.0256348,-0.015564
123,0,0.00335693,0.0115967,0.0100708,0.0469971,0.0213623,0.00549316,0.0180054,-0.389709,0.0088501,1.81671,-0.0296021,0.0369263,0.0299072
123,1,0.00762939,0.0158691,0.0360107,0.0204468,0.032959,0.0302124,0.0253296,-0.385437,0.0228882,1.74713,-0.0109863,0.0244141,0.0915527
123,2,0.0689697,0.00854492,0.0195312,-0.0140381,0.0393677,0.017395,0.0268555,-0.353394,0.00976562,1.70319,-0.0259399,0.0363159,0.0302124
123,3,-0.00305176,0.00976562,0.0280762,0.0286865,0.0363159,0.038147,0.0415039,-0.3479,0.0228882,1.64001,-0.0601196,0.00671387,0.0265503
123,4,0.0137329,0.0161743,0.0350952,0.0161743,0.0238037,-0.0100708,0.0430298,-0.324097,0.0424194,1.57623,-0.015564,0.00244141,0.0283813
124,0,0.00976562,0.00427246,0.0192261,0.0250244,0.00213623,0.0357056,0.0387573,-0.27771,0.0125122,1.53107,-0.0256348,0.00427246,0.0222778
124,1,0.0216675,0.0198364,0.0222778,0.032959,0.0228882,0.0299072,0.0186157,-0.326538,-0.00488281,1.48407,-0.00732422,-0.032959,0.0305176
124,2,0.0170898,0.0244141,0.00366211,0.0384521,0.0302124,0.0244141,0.0338745,-0.299683,0.0338745,1.42181,0.0100708,0.0265503,0.012207
124,3,0.0177002,0.0289917,0.0238037,0.00946045,0.0341797,0.0283813,0.0332642,-0.299072,0.0210571,1.39099,-0.0158691,0.0140381,0.0323486
124,4,0.0213623,0.0204468,0.0149536,0.0311279,0.0253296,0.0305176,0.0592041,-0.284119,0.00946045,1.29578,-0.0231934,0.0149536,0.0259399
125,0,0.0305176,0.0119019,0.0143433,0.0143433,0.0308228,0.0152588,0.0369263,-0.289307,0.0201416,1.31592,-0.0213623,0.0219727,0.0344849
125,1,0.0326538,0.017395,0.0170898,0.0631714,0.0274658,0.0247192,0.0796509,-0.286255,0.0323486,1.23901,-0.0213623,0.0112915,0.00305176
125,2,0.012207,-0.00457764,0.0375366,0.03479,0.0164795,0.0271606,0.0326538,-0.297852,0.0180054,1.20087,-0.0271606,0.0146484,0.0180054
125,3,0.0146484,0.0152588,0.0827026,0.0250244,0.0308228,0.0793457,0.0231934,-0.272217,0.057373,1.13556,-0.0238037,0.0177002,0.0439453
125,4,0.0601196,0.0167847,0.0177002,0.0317383,0.0250244,0.0228882,0.0292969,-0.260925,0.0210571,1.10504,-0.0198364,0.0158691,0.0210571
126,0,0.00671387,0.00335693,0.0115967,0.0292969,0.0286865,0.0341797,0.0280762,-0.251465,0.0195312,1.07574,-0.0189209,0.00976562,-0.00610352
126,1,0.0244141,0.010376,0.0283813,0.0204468,0.032959,0.0128174,0.0299072,-0.254517,0.0210571,1.02356,-0.027771,-0.00854492,0.0140381
126,2,0.0119019,0.00396729,0.0314331,0.0112915,0.0195312,-0.00274658,0.0323486,-0.223389,0.00610352,0.983582,-0.0216675,0.0241089,0.0100708
126,3,0.0140381,0.0302124,0.020752,0.00732422,0.055542,0.0125122,0.0286865,-0.237122,0.0192261,0.966187,-0.0213623,0.027771,0.0390625
126,4,0.015564,0.0170898,0.0357056,0.017395,0.0143433,0.0280762,0.0296021,-0.210571,0.0274658,0.904846,-0.0274658,0.0387573,0.0222778
127,0,0.0228882,0.0186157,0.0204468,0.00732422,0.0271606,0.0378418,0.0424194,-0.211792,0.0195312,0.896301,-0.0332642,0.0186157,0.00579834
127,1,0.0216675,0.0140381,0.0335693,0.0292969,0.0228882,0.0418091,0.027771,-0.209351,0.0134277,0.838623,-0.0228882,0.00915527,0.015564
127,2,0.015564,0.0259399,0.0424194,0.0262451,0.0213623,0.0244141,0.0280762,-0.202942,0.0372314,0.820618,-0.0167847,0.0170898,0.043335
127,3,0.0201416,0.0238037,0.0198364,-0.0198364,0.0256348,0.0305176,0.0320435,-0.198669,0.0204468,0.760803,-0.0158691,0.0280762,0.0473022
127,4,0.0189209,0.0244141,0.0158691,0.0582886,0.0192261,0.0280762,0.0360107,-0.20752,0.0314331,0.682373,-0.0299072,-0.000610352,0.022583
128,0,-0.000305176,0.00152588,0.0256348,0.0421143,0.0259399,0.0115967,0.0512695,-0.19165,0.03479,0.70282,-0.017395,0.0189209,0.0128174
128,1,0.0100708,0.0198364,0.0180054,0.0238037,0.00610352,0.0183105,0.03479,-0.152893,0.0289917,0.679321,-0.000610352,0.00640869,0.0100708
128,2,0.0192261,0.0250244,0.0170898,0.0177002,-0.000915527,0.020752,0.0259399,-0.19928,0.0820923,0.642395,-0.00183105,-0.015564,0.0296021
128,3,-0.0259399,0.0109863,0.0140381,-0.0344849,0.0180054,0.0280762,0.0302124,-0.176086,0.022583,0.415344,-0.00915527,0.0186157,0.00915527
128,4,0.0134277,0.0100708,-0.0146484,0.0161743,0.0210571,-0.0204468,0.015564,-0.169983,-0.00854492,0.193787,-0.0128174,0.0439453,0.0253296
129,0,0.0152588,0.0158691,0.0271606,0.0164795,0.0271606,0.0247192,-0.00579834,-0.19104,0.010376,-0.065918,-0.0357056,0.0088501,-0.00701904
129,1,0.0164795,0.00335693,0.00427246,0.0286865,0.0326538,0.0253296,-0.00854492,-0.154114,0.0247192,-0.234375,-0.0234985,0.0106812,0.0592041
129,2,0.0305176,0.0228882,0.0213623,-0.000305176,0.00823975,0.0231934,0.0524902,-0.157471,0.0231934,-0.289917,-0.0167847,-0.00427246,0.0369263
129,3,0.0616455,0.0109863,0.0195312,0.00793457,0.027771,0.0250244,0.0131226,-0.160217,0.0213623,-0.462952,0.000610352,0.00335693,0.0372314
129,4,0.0296021,0.020752,0.0228882,0.0125122,0.012207,-0.012207,0.0393677,-0.145874,0.0115967,-0.624695,-0.0234985,0.0146484,0.0259399
130,0,-0.00305176,0.0234985,0.0140381,0.0164795,0.03479,0.0256348,0.0314331,-0.153809,0.0195312,-0.801086,0.0167847,0.000610352,0.0119019
130,1,0.0140381,0.00946045,0.0540161,0.0283813,0.038147,0.0363159,0.0262451,-0.136414,0.0271606,-0.880432,-0.0177002,0.010376,0.00640869
130,2,0.022583,0.0436401,0.0012207,0.0189209,0.0241089,0.0320435,0.0289917,-0.137329,0.03479,-0.941772,-0.0268555,-0.00213623,0.0213623
130,3,0.000610352,-0.0402832,0.027771,0.0320435,0.0201416,0.0189209,0.017395,-0.139771,0.0366211,-1.03394,-0.0167847,0.00854492,0.0274658
130,4,0.0106812,0.0482178,-0.000610352,0.0180054,0.0430298,0.0256348,0.0302124,-0.126953,0.0222778,-1.11511,-0.0106812,0.0201416,0.0106812
131,0,0.020752,0.0601196,0.0213623,0.0213623,0.0311279,0.0427246,0.0253296,-0.144043,0.0170898,-1.15814,-0.0189209,0.0137329,0.0177002
131,1,0.0180054,0.00610352,0.0378418,0.0387573,0.027771,0.0415039,0.0335693,-0.126953,0.0146484,-1.27777,-0.0247192,0.0115967,0.0167847
131,2,0.0213623,0.038147,0.0244141,0.0241089,-0.0274658,0.0411987,0.0213623,-0.170898,0.00335693,-2.50305,-0.0320435,0.0210571,0.0186157
131,3,0.0140381,0.0143433,-0.0125122,0.0299072,0.0180054,0.0219727,0.0436401,-0.115356,0.0289917,-1.54205,-0.0262451,0.0128174,0.0183105
131,4,0.0170898,0.012207,0.0180054,0.00762939,0.020752,0.0283813,0.032959,-0.0982666,0.0369263,-1.28448,-0.020752,0.0140381,0.0311279
132,0,0.00366211,0.0161743,0.0314331,0.020752,0.0332642,0.0222778,0.0198364,-0.109558,0.0292969,-1.29883,-0.022583,0.00549316,0.0286865
132,1,0.0100708,0.0668335,0.0112915,0.0189209,-0.0411987,0.0244141,0.0338745,-0.101318,0.0189209,-1.3324,-0.00396729,0.0146484,0.0198364
132,2,0.010376,0.0115967,0.00823975,0.0183105,0.0262451,0.0204468,0.0430298,-0.0494385,0.0308228,-1.36597,0.00946045,0.0219727,0.00610352
132,3,0.0152588,0.00671387,0.0213623,0.0146484,0.0204468,0.0457764,0.0271606,-0.104065,-0.00732422,-1.37177,-0.0286865,0.0317383,0.00976562
132,4,0.0177002,0.015564,0.00152588,0.0177002,0.0164795,0.0308228,-0.0109863,-0.0961304,0.0198364,-1.36414,-0.0222778,0.0158691,0.0869751
133,0,0.0177002,0.0140381,0.00152588,0.0241089,0.0234985,0.0326538,0.0366211,-0.100098,0.0305176,-1.38672,-0.022583,-0.000915527,0.0289917
133,1,0.0265503,0.0457764,0.0158691,0.00915527,0.0311279,0.0299072,0.0326538,-0.0933838,0.0405884,-1.38824,-0.0158691,0.0161743,0.0415039
133,2,0.0198364,0.00793457,0.00427246,0.0119019,0.0247192,0.0299072,0.00488281,-0.108643,0.0323486,-1.38306,-0.0299072,0.00976562,0.0201416
133,3,0.0427246,0.0180054,0.00610352,0.0308228,0.0134277,0.0189209,0.020752,-0.0857544,0.0143433,-3.18909,-0.0198364,0.0164795,-0.0335693
133,4,0.017395,0.00366211,0.0167847,0.0131226,-0.00671387,0.0454712,0.0238037,-0.0848389,0.0250244,-1.92566,-0.0106812,-0.00305176,0.0128174
134,0,0.0167847,0.000610352,0.00396729,0.0372314,0.0195312,0.0405884,0.0323486,-0.085144,0.0228882,-1.49902,-0.0204468,0.0741577,0.00762939
134,1,0.0280762,0.010376,-0.000915527,0.0283813,0.00854492,0.0512695,0.0335693,-0.085144,0.0405884,-1.28601,-0.00915527,-0.00671387,0.0216675
134,2,0.0128174,0.00213623,-0.00579834,0.0305176,0.0332642,0.0970459,0.0238037,-0.0650024,0.0662231,-1.1615,-0.0305176,0.00823975,0.00946045
134,3,0.0186157,0.00823975,-0.00610352,0.0234985,0.0259399,0.010376,0.0378418,-0.0708008,0.0234985,-2.21313,-0.0219727,0.00854492,0.032959
134,4,0.0201416,0.0253296,0.0256348,0.0213623,0.0823975,0.0213623,0.0241089,-0.0262451,0.00854492,-1.39557,-0.0259399,0.0286865,0.012207
135,0,0.015564,0.0540161,0.0308228,0.017395,0.0231934,0.0283813,0.0289917,-0.0744629,0.0320435,-1.12488,-0.0253296,0.0296021,0.0167847
135,1,0.0305176,0.0866699,0.0262451,0.010376,-0.0289917,0.0311279,0.0222778,-0.0753784,0.0231934,-1.49841,-0.017395,0.00549316,0.0195312
135,2,0.0274658,0.0152588,0.0167847,0.0283813,0.0180054,0.00305176,0.0418091,-0.072937,0.0411987,-1.67267,-0.0213623,0.0326538,0.0146484
135,3,0.0244141,0.0286865,0.0146484,0.0189209,0.0344849,0.0268555,0.0292969,-0.0341797,0.0204468,-3.18817,-0.00488281,0.0186157,0.0210571
135,4,0.0274658,0.0143433,-0.0128174,0.0250244,0.0250244,0.0378418,0.0170898,-0.0585938,0.0201416,-2.47803,-0.0186157,0.0286865,0.00488281
136,0,0.0143433,0.0161743,0.00762939,-0.0311279,0.0280762,0.0256348,0.0805664,-0.0762939,0.0338745,-2.98218,-0.00946045,0.0186157,0.0192261
136,1,0.00396729,0.0125122,-0.0372314,0.0311279,0.0213623,0.0634766,0.0436401,-0.0445557,0.0265503,-1.29181,-0.0189209,0.0265503,0.00488281
136,2,0.0177002,0.00915527,-0.0152588,0.0137329,0.0265503,0.0140381,0.0274658,-0.0445557,0.010376,-0.18219,-0.0274658,0.00610352,0.0241089
136,3,0.0247192,0.0247192,0.010376,0.00366211,0.0161743,0.0216675,0.0253296,-0.0549316,0.0326538,-2.1286,-0.0244141,0.00854492,0.0201416
136,4,0.0222778,0.017395,0.0177002,0.03479,0.012207,0.0192261,0.0244141,-0.0534058,0.0445557,-0.501099,-0.0195312,0.0527954,0.0137329
137,0,0.0210571,0.0219727,-0.0115967,0.0115967,0.0231934,0.00152588,0.0357056,-0.0485229,0.0476074,-2.16095,-0.0259399,0.0228882,0.0338745
137,1,0.0146484,-0.0314331,0.015564,0.0161743,0.0570679,0.00579834,0.0228882,-0.0439453,0.0231934,-1.9577,-0.0115967,0.0357056,0.0201416
137,2,0.022583,0.0161743,-0.0421143,0.0180054,0.00793457,0.020752,0.0372314,-0.0640869,0.020752,-3.0246,-0.00793457,0.0238037,0.0134277
137,3,0.0314331,0.0149536,0.0183105,0.0286865,0.0149536,0.020752,0.03479,-0.0518799,0.0244141,-1.02814,-0.0341797,0.0189209,0.0222778
137,4,0.0213623,0.0152588,-0.0460815,0.00976562,0.00732422,0.0259399,0.039978,-0.071106,0.0369263,-2.19269,-0.00915527,0.0241089,0.0247192
138,0,0.0250244,0.0198364,0.0195312,0.00854492,0.00640869,0.0112915,0.0189209,-0.0439453,-0.000915527,-2.43011,-0.0167847,-0.0320435,0.0418091
138,1,0.0198364,-0.0210571,0.0177002,0.00640869,0.0170898,0.0119019,0.0332642,-0.0512695,0.00213623,-1.78558,-0.0244141,0.0280762,0.0247192
138,2,0.055542,0.0143433,0.0119019,0.0210571,0.0140381,0.0326538,0.0332642,-0.0299072,0.020752,-1.92505,-0.032959,0.00610352,0.0164795
138,3,0.0244141,0.0125122,0.0390625,0.0189209,0.0158691,0.0180054,0.0167847,-0.0469971,0.032959,0.103149,-0.0192261,-0.0479126,0.00549316
138,4,0.0247192,0.0158691,0.0109863,0.0192261,0.0177002,0.0149536,0.0515747,-0.0604248,0.022583,-1.70258,-0.0540161,0.022583,-0.0421143
139,0,0.0170898,0.0167847,0.0210571,0.0219727,0.0213623,0.0369263,0.0363159,-0.0274658,0.0326538,-1.52527,-0.0378418,0.0238037,0.015564
139,1,0.0238037,0.00518799,0.0131226,0.0180054,-0.017395,0.0332642,0.0320435,-0.0436401,0.0387573,-0.974731,-0.0296021,0.0158691,0.0183105
139,2,0.0210571,0.0231934,0.0186157,0.012207,-0.0119019,0.0219727,0.0311279,-0.0302124,0.0289917,-0.484314,-0.0189209,0.0146484,0.0268555
139,3,0.0308228,-0.0106812,0.0216675,0.0299072,0.0488281,0.022583,0.0161743,0.00671387,0.022583,-0.463867,-0.0274658,0.00640869,0.0311279
139,4,0.0762939,0.0170898,0.0201416,0.0579834,0.0109863,0.03479,0.0341797,-0.0146484,0.0256348,1.05194,-0.0482178,0.0247192,0.00976562
140,0,0.0198364,0.0119019,0.0405884,0.0167847,0.0241089,-0.0219727,0.0421143,-0.0280762,0.0354004,-0.206299,-0.0350952,0.0146484,0.0112915
140,1,0.0213623,0.0213623,-0.000305176,-0.00213623,0.0201416,0.0152588,0.00183105,-0.0296021,0.0335693,-0.762329,-0.0228882,0.0161743,-0.000915527
140,2,0.0411987,0.0119019,0.0109863,0.0234985,0.0152588,0.0344849,0.020752,-0.0268555,0.0143433,-0.447083,-0.0216675,0.0485229,0.0192261
140,3,0.032959,0.00701904,0.0262451,-0.0149536,0.0219727,0.0167847,0.0332642,-0.0393677,0.0338745,0.970154,-0.00732422,0.0253296,0.00915527
140,4,0.0314331,0.0195312,0.0146484,0.0112915,0.0363159,0.0137329,0.0292969,-0.0201416,0.0372314,0.473022,-0.0195312,0.0201416,0.0335693
141,0,0.0372314,-0.00579834,0.00488281,0.0131226,0.020752,0.0228882,0.0170898,-0.020752,0.0350952,0.86792,-0.0421143,0.0183105,0.0115967
141,1,0.0289917,0.0180054,-0.0244141,0.0180054,0.0250244,-0.0213623,0.020752,-0.0326538,0.0683594,0.791626,-0.0253296,-0.0369263,0.0228882
141,2,0.0241089,0.0335693,0.0195312,0.015564,-0.00946045,-0.00366211,0.0262451,-0.0415039,0.0137329,0.527649,-0.0326538,0.0192261,0.0274658
141,3,0.0286865,0.00793457,0.0662231,0.0216675,0.0125122,-0.0143433,0.0204468,-0.027771,0.0323486,0.329285,-0.0314331,0.0177002,0.0137329
141,4,0.050354,0.0280762,0.0265503,0.020752,0.0241089,0.010376,0.0198364,-0.0170898,0.0378418,0.689087,-0.0311279,0.00457764,0.0476074
142,0,0.0296021,0.00427246,-0.00701904,0.00640869,0.0238037,-0.00183105,0.0369263,-0.0189209,-0.0228882,0.646667,-0.0366211,0.0421143,0.017395
142,1,0.0241089,0.0164795,0.0201416,0.0119019,0.0192261,0.0106812,0.0268555,-0.000610352,0.0286865,0.565186,-0.0466919,0.0183105,0.00976562
142,2,0.0354004,0.00762939,0.00762939,0.0137329,-0.0189209,0.0192261,0.0366211,-0.0610352,0.0393677,0.437012,-0.0363159,0.0189209,0.0286865
142,3,0.0357056,0.00701904,0.015564,0.0183105,0.0189209,0.022583,0.0265503,-0.0189209,0.0357056,0.383606,-0.0418091,0.00549316,0.017395
142,4,0.0405884,0.039978,0.0204468,0.0128174,-0.00732422,0.0234985,0.0201416,-0.00457764,0.0259399,0.301208,-0.0195312,0.0299072,0.0137329
143,0,0.0515747,0.0296021,0.0292969,0.0320435,0.0149536,0.0231934,0.0195312,-0.0222778,0.0354004,0.239563,-0.0311279,0.0247192,0.0454712
143,1,-0.0241089,0.0213623,0.0222778,0.0164795,0.0149536,0.0286865,0.0137329,-0.0323486,0.0119019,0.161133,-0.0646973,0.0363159,0.0305176
143,2,0.0320435,0.0247192,0.0115967,0.0317383,0.0152588,0.00701904,0.0259399,-0.00244141,0.0241089,0.108337,-0.0378418,0.0274658,0.0183105
143,3,0.032959,0.0238037,0.0119019,0.0195312,0.00549316,0.0228882,0.0146484,-0.0204468,0.0268555,-0.00274658,-0.0247192,0.0396729,0.0213623
143,4,0.039978,0.0201416,0.00183105,0.00946045,0.0109863,0.0311279,0.0299072,-0.0238037,0.0372314,-0.0360107,-0.027771,0.0326538,0.0250244
144,0,0.0448608,0.00854492,0.0210571,0.0088501,0.0213623,0.00518799,0.0332642,-0.00396729,0.0152588,-0.0637817,-0.0244141,0.0192261,-0.0460815
144,1,0.0543213,0.0247192,-0.0146484,0.00457764,0.0128174,-0.0119019,0.0201416,-0.00335693,0.0250244,-0.0857544,-0.0296021,0.0183105,0.00549316
144,2,0.027771,0.020752,0.0375366,0.0308228,0.00793457,0.0280762,0.0262451,-0.0363159,0.017395,-0.125732,-0.0247192,0.0274658,0.057373
144,3,0.0265503,0.0372314,0.0137329,0.0149536,0.0100708,0.0183105,0.0302124,-0.0195312,0.0363159,-0.13092,-0.0354004,0.0170898,0.0210571
144,4,0.0140381,0.0302124,-0.00152588,0.0219727,0.0088501,0.027771,0.0262451,-0.0161743,0.0231934,-0.110474,-0.0289917,0.0192261,-0.0305176
145,0,0.0234985,0.0274658,0.0183105,0.00915527,0.0137329,0.0115967,0.00396729,-0.010376,0.0152588,-0.196838,-0.0280762,0.0177002,0.015564
145,1,0.0296021,-0.0341797,0.0259399,0.0134277,0.032959,-0.00366211,0.0195312,-0.0201416,0.0253296,-0.290833,-0.0296021,0.015564,0.0167847
145,2,0.0241089,0.0268555,0.0241089,0.0088501,0.0250244,0.00823975,0.0213623,-0.0204468,0.0274658,-0.21637,-0.0271606,0.0378418,0.0131226
145,3,-0.0247192,0.0253296,0.0109863,0.0643921,0.0192261,0.00793457,-0.022583,-0.0186157,0.0213623,-0.225525,0.0106812,0.0213623,0.0161743
145,4,0.0360107,0.0320435,0.0305176,0.00793457,0.0234985,-0.0241089,0.0219727,-0.0164795,-0.00915527,-0.470276,-0.0271606,0.0445557,0.0296021
146,0,0.022583,0.0335693,0.0253296,0.0250244,0.0119019,0.0119019,0.0146484,-0.0231934,0.0216675,-0.770874,-0.0213623,0.0247192,-0.0115967
146,1,0.0302124,0.0158691,0.0241089,0.0161743,0.0192261,0.00854492,0.0146484,0.0100708,0.0305176,-1.39801,-0.0375366,0.043335,0.0146484
146,2,0.0210571,0.0375366,0.0149536,0.0228882,0.0396729,0.000915527,0.0201416,-0.0131226,0.0335693,-1.90247,-0.0305176,0.027771,0.0311279
146,3,0.03479,0.0387573,0.0292969,0.00305176,0.00701904,0.0100708,0.00640869,0.0448608,0.0341797,-0.392456,-0.00854492,0.020752,0.0177002
146,4,0.00244141,0.0289917,0.0247192,0.0131226,0.0146484,0.0137329,0.00244141,0.00854492,0.00488281,-0.411072,-0.0442505,0.0302124,0.0186157
147,0,0.0317383,0.0610352,0.0259399,0.0213623,-0.00946045,0.017395,0.0222778,-0.00732422,0.00946045,0.107422,-0.0250244,0.0546265,0.0158691
147,1,0.03479,0.0308228,0.0238037,0.0195312,0.00549316,0.0198364,0.0152588,0.0140381,0.0250244,0.0238037,-0.0189209,0.0427246,0.0183105
147,2,0.0201416,0.0366211,0.0244141,-0.032959,0.0189209,0.0216675,-0.00610352,-0.00610352,0.0250244,0.0888062,-0.0338745,0.0344849,0.0228882
147,3,0.0250244,0.039978,0.0259399,0.0164795,0.0405884,0.0180054,0.0180054,-0.00152588,0.0299072,0.0137329,-0.0360107,0.0271606,0.0250244
147,4,0.00579834,0.0534058,0.0222778,0.0158691,-0.0143433,0.00976562,0.0143433,-0.000305176,0.0143433,-0.343323,-0.0238037,0.0421143,0.0112915
148,0,-0.0219727,0.032959,0.0189209,0.0289917,0.0192261,0.0204468,0.0576782,0.00366211,0.0201416,-1.05804,-0.0506592,0.0289917,0.057373
148,1,0.0219727,0.0152588,-0.00579834,0.0274658,0.0125122,0.000610352,0.0167847,0.000915527,0.0369263,0.109253,-0.0463867,0.0167847,0.0219727
148,2,0.0280762,0.0350952,0.0201416,0.0158691,0.0149536,0.0360107,0.00213623,-0.0146484,0.0244141,0.168457,-0.0280762,0.0326538,0.0341797
148,3,0.0186157,0.0305176,0.0241089,0.0119019,0.0296021,0.00701904,0.0265503,-0.0137329,0.0274658,0.124512,-0.0189209,0.0228882,0.0112915
148,4,0.0180054,0.0170898,0.0192261,0.0177002,0.0338745,0.0112915,0.00823975,-0.0244141,0.0314331,0.109253,-0.0274658,0.015564,0.0357056
149,0,0.0292969,0.0360107,0.0244141,0.017395,0.022583,0.00640869,0.0274658,-0.0238037,0.0109863,0.085144,-0.0360107,0.0308228,0.0112915
149,1,-0.0238037,0.0299072,0.0250244,0.065918,0.00244141,0.0158691,0.0161743,-0.010376,0.0152588,-2.07825,-0.0228882,0.0344849,0.0369263
149,2,0.0244141,0.0350952,0.0146484,0.0186157,-0.0259399,0.0357056,0.00366211,-0.000305176,0.00946045,-2.48871,-0.022583,0.03479,0.0234985
149,3,0.0357056,-0.0280762,0.0259399,0.00793457,0.0201416,-0.00488281,0.0262451,-0.032959,0.0201416,-2.74841,-0.0421143,0.0302124,0.0259399
149,4,0.0436401,0.0314331,0.022583,-0.0189209,0.00976562,0.00549316,0.0177002,0.00305176,0.00854492,-2.67975,-0.0311279,0.0350952,0.0402832
150,0,0.0311279,0.0170898,0.0283813,0.0195312,0.0222778,0.020752,0.00610352,-0.00946045,0.078125,-2.61475,-0.0271606,-0.0088501,0.0183105
150,1,0.0265503,0.0180054,0.0149536,0.0134277,0.0427246,0.0152588,0.0115967,-0.00488281,0.0201416,-0.711365,-0.0387573,0.0271606,-0.0180054
150,2,0.0463867,0.0881958,0.0204468,0.00793457,0.0650024,0.0204468,0.0137329,-0.0012207,0.0152588,-1.22162,-0.0448608,0.0286865,0.038147
150,3,0.00518799,0.0198364,0.0311279,-0.0164795,0.0292969,0.0180054,-0.0164795,-0.0109863,0.0241089,2.37732,0.000915527,0.0231934,0.0454712
150,4,0.0326538,0.0201416,0.0216675,0.0192261,0.0164795,0.0256348,0.020752,0.00518799,0.0125122,2.90771,0.00518799,0.0418091,0.0354004
151,0,0.0424194,0.0201416,0.0192261,0.0158691,0.0112915,0.0112915,0.00762939,-0.0115967,0.020752,2.56073,-0.0296021,0.0418091,0.0286865
151,1,0.0305176,0.0476074,0.0363159,0.0125122,0.027771,0.00274658,0.00640869,-0.0411987,0.0189209,2.25433,-0.0262451,0.0314331,0.0241089
151,2,0.0354004,0.06073,0.0305176,0.0186157,0.0750732,0.0161743,0.00610352,0.0195312,0.0222778,2.05261,-0.0192261,0.0317383,0.0286865
151,3,0.0357056,0.0332642,0.0119019,-0.00823975,0.0259399,0.015564,0.0222778,-0.00396729,0.0213623,1.98151,-0.0189209,0.0341797,-0.0350952
151,4,0.0280762,0.0332642,0.00793457,0.0112915,-0.0448608,0.00793457,-0.00793457,-0.00671387,0.0180054,1.78864,-0.0158691,0.0250244,0.0332642
152,0,0.0299072,0.0369263,0.0408936,-0.0405884,0.00274658,0.0335693,-0.00366211,0.0134277,0.0152588,1.60156,-0.0384521,0.038147,0.0186157
152,1,0.0369263,0.0396729,0.0115967,0.0265503,0.0106812,0.022583,-0.00976562,0.00701904,0.0143433,1.40625,-0.022583,0.0393677,0.0210571
152,2,0.03479,0.03479,-0.0494385,0.0119019,0.0265503,-0.0601196,0.0115967,-0.00396729,0.0228882,1.24817,-0.0296021,0.0250244,0.0424194
152,3,0.0302124,0.0369263,0.0204468,0.0186157,0.00183105,0.0708008,0.0119019,0.00610352,0.0369263,1.0788,-0.0253296,0.0213623,0.0234985
152,4,0.0222778,0.0338745,-0.00244141,0.00488281,0.0161743,0.0692749,0.0146484,0.00396729,0.0268555,0.949402,-0.0216675,0.0234985,0.027771
153,0,-0.032959,0.0274658,0.015564,0.0213623,0.0204468,0.043335,0.0512695,0.0143433,0.0363159,0.819702,-0.0241089,0.0280762,0.038147
153,1,0.0231934,0.0460815,0.0128174,0.0259399,0.00244141,0.0897217,0.0213623,0.00427246,0.0634766,0.678406,-0.0106812,-0.0408936,0.0369263
153,2,0.0421143,0.0213623,0.0265503,0.0747681,0.0210571,0.0198364,0.0387573,0.00671387,0.0210571,0.571594,-0.0216675,0.0274658,0.0222778
153,3,0.020752,0.0241089,0.0250244,0.017395,-0.0112915,0.0274658,0.0119019,0.0482178,0.0134277,0.471191,-0.027771,0.0247192,0.045166
153,4,0.032959,0.0115967,0.0299072,0.0183105,0.0357056,0.00976562,0.0100708,-0.00244141,0.0210571,0.381775,-0.0268555,0.0308228,0.0357056
154,0,0.0164795,0.0268555,0.0686646,0.0247192,0.0183105,-0.0357056,0.0146484,-0.00610352,0.055542,0.299072,-0.0228882,0.0314331,0.0354004
154,1,0.0326538,0.020752,0.0250244,0.0280762,0.0161743,0.00427246,0.0234985,-0.00610352,0.0170898,0.213013,-0.0216675,0.0430298,0.0109863
154,2,0.0308228,0.0317383,-0.0140381,0.0262451,0.017395,0.0119019,0.0234985,0.00396729,0.0204468,0.162964,-0.0292969,0.0286865,-0.00793457
154,3,0.0177002,0.0253296,0.0360107,0.0115967,0.0170898,0.0143433,0.010376,0.00610352,0.0119019,-0.0259399,-0.0317383,0.0311279,0.0357056
154,4,0.012207,0.0363159,0.0219727,0.0186157,0.0198364,0.0234985,0.0238037,0.0128174,0.0213623,-0.050354,-0.027771,0.0344849,0.00793457
155,0,0.072937,0.00579834,0.0323486,0.0210571,0.022583,0.0167847,0.0109863,-0.000610352,0.00183105,-0.0915527,-0.0234985,0.0161743,0.0274658
155,1,0.0469971,0.0268555,0.0283813,0.0161743,0.0271606,0.00976562,0.0115967,0.0192261,0.0128174,-0.158386,-0.0326538,0.0283813,0.0256348
155,2,0.0216675,0.0222778,0.0195312,0.0131226,0.0241089,0.00976562,0.0131226,0.00305176,0.0210571,-2.49542,-0.0680542,0.0219727,0.0137329
155,3,0.0311279,0.0280762,0.0308228,0.0201416,0.0170898,0.017395,0.017395,0.00640869,0.00701904,-2.5177,-0.0192261,0.0366211,0.0271606
155,4,0.012207,0.032959,0.0262451,-0.00610352,0.0274658,0.022583,0.0323486,0.0128174,0.0219727,-1.47522,-0.0387573,0.0280762,0.0506592
156,0,0.0241089,0.0323486,0.0219727,0.0228882,0.0512695,0.0170898,0.00671387,0.0158691,0.0280762,-2.96875,-0.027771,0.0259399,0.0360107
156,1,0.0308228,0.0296021,0.0250244,0.0195312,0.0128174,0.0183105,-0.00457764,0.0131226,0.0152588,-2.8775,-0.0332642,0.032959,0.0592041
156,2,0.0128174,0.0299072,0.0411987,0.0308228,0.0256348,0.0213623,0.0170898,0.00640869,0.0177002,-2.83905,-0.0262451,0.0286865,0.0195312
156,3,0.0320435,0.0332642,0.0247192,0.0262451,0.0161743,0.0201416,0.017395,0.0146484,0.0775146,-2.7832,-0.0265503,0.0775146,0.067749
156,4,0.0250244,0.0234985,0.0265503,0.0283813,0.0265503,0.0848389,0.0109863,0.000305176,0.0463867,-2.71118,-0.0265503,0.0195312,0.0344849
157,0,0.0338745,0.0305176,0.0283813,0.0204468,0.0244141,0.0204468,0.017395,-0.0161743,0.0213623,2.25952,-0.0201416,0.0518799,0.0540161
157,1,0.0372314,0.0213623,0.0222778,0.017395,0.0302124,0.0180054,0.00946045,-0.00244141,0.0216675,-1.70105,-0.0299072,0.0134277,0.0442505
157,2,0.0128174,0.0234985,0.0363159,0.0222778,0.0210571,0.0357056,0.0216675,0.000610352,0.022583,-0.0869751,-0.03479,0.0244141,0.0369263
157,3,0.00915527,0.0100708,0.027771,-0.00640869,0.0534058,0.0262451,-0.0231934,0.00946045,0.0186157,3.30475,-0.0411987,0.0360107,0.0308228
157,4,0.0244141,0.0177002,0.0357056,0.0305176,0.0341797,0.0210571,0.0219727,-0.0320435,0.0204468,3.18604,-0.00335693,0.0335693,0.0405884
158,0,0.0253296,0.0137329,0.039978,0.0643921,0.0390625,0.0286865,0.0186157,0.00366211,0.0146484,1.138,-0.0732422,0.0222778,0.0344849
158,1,0.00640869,0.0335693,0.0366211,0.0375366,0.0170898,0.0186157,0.0100708,-0.00549316,0.0164795,3.02338,-0.0152588,0.039978,0.0366211
158,2,0.0198364,0.0445557,0.039978,0.0308228,0.0372314,0.0268555,0.010376,0.0585938,0.0100708,2.97302,-0.0238037,0.027771,0.0338745
158,3,0.020752,0.0210571,0.072937,0.0228882,0.0323486,0.0231934,0.0128174,0.0335693,0.000915527,2.86316,-0.0247192,0.00762939,0.0253296
158,4,0.0152588,0.027771,0.0375366,0.0177002,0.020752,0.0152588,0.0250244,0.0689697,0.00701904,2.76337,-0.00854492,0.0262451,0.0234985
159,0,0.0265503,0.0219727,0.0613403,0.0204468,0.0231934,-0.022583,0.0167847,0.0637817,-0.0323486,2.67303,-0.0241089,0.0793457,0.0158691
159,1,0.0140381,0.0234985,0.0335693,0.0769043,0,0.0222778,0.0149536,0.057373,0.0210571,2.57385,-0.0311279,0.0317383,0.0338745
159,2,0.00579834,0.0228882,0.0268555,0.0558472,0.0262451,0.0228882,0.0140381,0.0570679,0.0234985,2.47772,-0.0283813,0.0195312,0.0350952
159,3,0.0906372,0.0289917,0.0170898,0.0689697,0.0180054,0.00366211,0.0643921,-0.00488281,0.0234985,-1.02966,-0.0137329,0.0241089,0.00854492
159,4,-0.0183105,-0.00396729,0.0296021,-0.00457764,0.0286865,0.022583,-0.0219727,-0.0326538,0.0109863,-3.03284,-0.0579834,0.0524902,0.00610352
160,0,0.0198364,0.0341797,0.00915527,0.0466919,0.0228882,-0.038147,0.0283813,-0.0137329,0.0201416,-3.19763,-0.0250244,0.0201416,0.0308228
160,1,0.020752,0,0.0210571,0.0369263,0.00396729,0.00396729,0.0299072,-0.0195312,0.0125122,-3.13812,-0.0271606,0.0323486,0.00427246
160,2,0.0256348,0.0216675,0.0286865,0.0308228,0.0183105,0.0183105,0.020752,-0.00793457,0.00518799,-3.05603,-0.0378418,0.0192261,-0.0167847
160,3,0.0164795,0.0320435,0.0274658,0.0344849,0.0109863,0.0204468,0.0274658,-0.0427246,0.012207,-0.725708,-0.0213623,0.0152588,0.0305176
160,4,0.0286865,0.0250244,0.0274658,0.0317383,0.0375366,0.0183105,0.0164795,0.000610352,0.000915527,1.31134,-0.010376,0.0216675,0.0262451
161,0,0.0161743,0.0317383,0.0164795,0.0314331,0.0296021,0.0759888,0.0314331,-0.022583,0.0256348,2.86865,-0.0183105,0.0189209,0.0170898
161,1,0.0314331,0.0262451,0.03479,0.0369263,0.0372314,0.0402832,0.0302124,-0.015564,0.00640869,2.77161,-0.020752,-0.0311279,0.0387573
161,2,0.015564,0.027771,-0.00396729,0.0265503,0.0262451,0.00579834,0.0128174,-0.017395,-0.0180054,2.67975,-0.0210571,0.062561,0.0445557
161,3,0.0161743,0.0219727,0.0216675,0.0238037,0.0195312,0.010376,0.0372314,-0.0195312,0.0137329,2.57843,-0.0128174,0.0161743,0.0280762
161,4,0.00305176,0.0296021,0.0323486,0.0524902,0.03479,0.0326538,0.0616455,-0.0192261,0.0186157,2.46643,-0.0265503,0.0320435,0.0317383
162,0,0.0186157,0.0308228,0.0308228,0.0274658,0.0408936,0.072937,0.0158691,-0.00183105,0.0421143,2.40295,0.0112915,0.0274658,0.0299072
162,1,0.0106812,0.0238037,0.0289917,0.0509644,0.039978,0.0198364,0.00915527,-0.017395,0.0167847,2.3056,-0.0234985,0.0143433,-0.000915527
162,2,0.0357056,-0.0341797,0.0204468,0.0387573,0.0680542,0.0338745,0.0158691,-0.0012207,0.0112915,1.38916,-0.0241089,0.0112915,0.0332642
162,3,0.0268555,0.0387573,0.0323486,0.0360107,0.0274658,0.0405884,0.0177002,-0.0115967,0.0146484,2.17834,-0.0201416,0.00183105,0.0238037
162,4,0.0183105,0.0088501,-0.00366211,0.0323486,0.0216675,0.0576782,0.0283813,0.0308228,0.0186157,2.10846,-0.0265503,0.0311279,0.0296021
163,0,-0.0088501,0.0164795,0.0482178,0.0976562,0.0262451,0.0357056,-0.0268555,0.00793457,0.0158691,1.98975,-0.0268555,0.00518799,0.0537109
163,1,0.0201416,0.027771,0.0198364,0.0360107,0.0350952,0.0378418,0.022583,0.00640869,0.00823975,1.97235,-0.0170898,0.0195312,0.0378418
163,2,-0.00244141,0.0238037,0.0213623,0.00579834,0.0189209,0.0448608,-0.0128174,-0.00610352,0.0146484,1.93451,-0.00640869,0.0143433,0.0274658
163,3,0.0570679,0.0231934,0.0161743,0.0595093,0.0387573,0.0323486,0.0210571,0.00915527,0.0109863,1.85089,-0.0192261,0.0198364,0.0204468
163,4,0.0317383,0.00732422,0.0259399,0.0457764,0.0164795,0.03479,0.0274658,0.0366211,-0.012207,1.83807,-0.0158691,0.0262451,0.0765991
164,0,0.0286865,0.0332642,0.0344849,0.0341797,0.038147,0.0314331,0.0164795,0.0601196,0.0131226,1.70593,-0.0320435,0.0234985,0.0238037
164,1,0.0317383,0.0161743,0.0253296,0.0256348,0.0332642,0.0735474,0.0201416,0.0167847,0.0680542,1.08185,-0.0149536,0.0241089,0.0558472
164,2,0.0134277,0.0912476,0.0463867,0.020752,0.057373,0.043335,0.0198364,-0.0109863,-0.00671387,1.15601,-0.0283813,0.000915527,0.020752
164,3,-0.00305176,0.0384521,0.0512695,0.0299072,0.0350952,0.032959,0.0222778,-0.010376,0.0180054,0.711975,-0.0164795,0.0247192,0.015564
164,4,0.0241089,0.03479,0.0357056,0.0326538,0.0357056,0.0250244,0.0204468,-0.012207,0.0314331,0.631714,-0.0170898,-0.00305176,0.0564575
165,0,0.0210571,-0.0115967,0.0137329,0.032959,0.015564,0.0299072,0.043335,-0.0012207,0.0314331,0.617981,-0.0164795,0.0210571,0.038147
165,1,0.0167847,0.0228882,0.0180054,0.0445557,0.0286865,0.0662231,0.0234985,0.00366211,0.0219727,0.35675,-0.0192261,0.0161743,0.0149536
165,2,0.0311279,0.0143433,0.0299072,0.0344849,0.0283813,0.020752,0.0286865,-0.00579834,0.0222778,0.0637817,-0.010376,0.00946045,0.0265503
165,3,0.0198364,0.00732422,0.03479,0.0509644,0.0454712,0.0323486,0.0302124,-0.00732422,0.0280762,0.0384521,-0.0140381,0.0280762,0.0134277
165,4,0.0186157,0.0180054,0.0265503,0.0292969,0.0195312,0.039978,0.0186157,-0.065918,0.0183105,0.0588989,-0.0177002,0.00854492,0.0204468
166,0,0.020752,0.0241089,0.050354,0.0338745,0.03479,0.0567627,0.0674438,0.00274658,0.010376,0.152893,-0.0299072,0.0119019,0.0271606
166,1,0.0265503,0.0109863,0.0350952,0.0198364,0.0286865,0.0387573,0.0201416,0.0219727,0.0119019,0.0793457,-0.0576782,0.0152588,0.0250244
166,2,0.00854492,0.0134277,0.0317383,0.0265503,0.0222778,0.0314331,0.0421143,0,0.00823975,0.0146484,-0.0265503,0.0112915,0.0234985
166,3,0.00579834,0.012207,0.0250244,0.0250244,0.0369263,0.0289917,0.0402832,-0.0244141,0.0164795,-0.125122,-0.00732422,0.0250244,0.0177002
166,4,0.0164795,0.0308228,0.0350952,0.0210571,0.00762939,0.0354004,0.0268555,0.00549316,0.0244141,-0.225525,-0.0253296,-0.00366211,0.0262451
167,0,0.00518799,0.0189209,0.0662231,0.0357056,0.0354004,-0.0234985,0.0469971,0.00579834,0.00640869,-0.361023,-0.0100708,0.0183105,0.0213623
167,1,0.0143433,0.0183105,0.0228882,0.0311279,0.032959,0.0283813,0.0198364,0.00579834,0.0137329,-0.406189,-0.00946045,0.0125122,0.0338745
167,2,0.0152588,-0.0302124,0.00335693,0.0314331,0.0198364,0.0167847,0.022583,0.0543213,0.0201416,-0.522156,-0.0216675,0.0143433,0.0378418
167,3,0.0323486,0.0183105,0.0256348,0.0186157,0.0289917,0.0241089,0.0195312,0.0210571,0.0152588,-0.586243,-0.0296021,0.0271606,0.0253296
167,4,0.0656128,0.0280762,0.00366211,0.0344849,0.0366211,0.043335,0.0180054,0.0192261,0.0183105,-0.63324,-0.0213623,0.0134277,0.0320435
168,0,0.0149536,0.0283813,0.0149536,0.0357056,0.0274658,0.0262451,0.0192261,-0.00762939,0.0183105,-0.813599,-0.0189209,0.00640869,0.0262451
168,1,0.00366211,0.0128174,0.0332642,0.0421143,0.0308228,0.0402832,0.0448608,0.0088501,0.0012207,-0.955505,-0.0262451,-0.0320435,0.0216675
168,2,0.0247192,0.0149536,-0.0100708,0.0332642,0.0259399,0.039978,0.00976562,0.0177002,0.057373,-1.20728,-0.0302124,0.0540161,0.00701904
168,3,0.0177002,-0.0268555,0.0247192,0.0231934,0.0515747,0.017395,0.027771,0.0128174,0.0372314,-1.32019,-0.0195312,-0.0186157,0.0198364
168,4,0.0134277,0.0311279,0.0170898,0.0360107,0.0259399,-0.0183105,0.0296021,0.0161743,0.0216675,-1.31775,-0.0222778,0.0134277,0.0479126
169,0,0.0119019,0.0201416,0.0228882,-0.00762939,0.0326538,0.0274658,0.085144,0.00946045,0.0177002,-1.19568,-0.010376,0.00549316,0.0204468
169,1,0.0198364,-0.00244141,0.0259399,0.0204468,-0.0271606,0.0247192,0.0286865,-0.0112915,0.0183105,-1.23352,-0.0234985,0.00518799,0.0234985
169,2,0.0189209,0.0216675,0.0149536,0.0311279,0.0326538,0.0445557,0.0308228,0.0128174,0.00946045,-1.14014,-0.022583,0.0100708,0.0344849
169,3,0.0326538,0.0268555,0.0152588,0.0335693,0.022583,0.0201416,0.0375366,0.0100708,0.0485229,-1.19659,-0.020752,0.0289917,0.0219727
169,4,0.0268555,-0.0363159,0.0100708,0.0268555,-0.0164795,0.0256348,0.0360107,0.0170898,0.0299072,-0.995789,-0.0509644,0.0305176,0.0186157
170,0,0.0186157,0.00732422,0.0323486,0.0247192,0.0189209,0.0250244,0.0189209,0.0128174,0.0109863,-0.986328,-0.00854492,0.0216675,0.0305176
170,1,0.0128174,-0.00213623,0.0317383,0.0320435,0.0314331,0.0357056,0.0466919,0.0186157,-0.0131226,-0.999756,-0.00488281,-0.00396729,0.010376
170,2,0.0393677,0.00640869,0.0305176,0.0222778,0.0439453,0.0265503,0.0192261,0.0219727,0.00396729,-0.767822,-0.0106812,0.0109863,0.0158691
170,3,0.0213623,0.0262451,0.0164795,0.0177002,0.0384521,-0.0241089,0.00793457,0.0241089,0.0830078,-0.783081,-0.0204468,0.0149536,0.045166
170,4,0.00823975,0.0106812,0.0161743,0.0231934,0.0259399,0.0302124,0.0302124,0.0198364,0.0402832,-0.681763,0.0262451,0.00946045,0.0219727
171,0,0.00305176,-0.0289917,0.0320435,0.0259399,0.0552368,0.0271606,0.0323486,0.0253296,0.00396729,-0.635376,-0.0244141,0.0250244,0.0302124
171,1,0.0088501,0.0216675,-0.0177002,0.0271606,0.0238037,0.0488281,0.0344849,0.0332642,0.0134277,-0.684814,-0.0149536,0.012207,-0.00671387
171,2,0.0146484,0.00671387,0.0238037,0.0292969,0.0146484,0.0286865,0.0189209,0.022583,0.0234985,-0.797424,-0.0192261,0.00549316,0.0369263
171,3,0.0378418,0.0262451,0.0158691,0.0262451,0.0274658,0.0338745,0.0216675,0.0335693,0.0088501,-0.899658,-0.00335693,0.00946045,0.0213623
171,4,0.0119019,0.0170898,0.0192261,0.0164795,0.0411987,0.0231934,0.0369263,0.0262451,0.022583,-1.05591,-0.0198364,0.0164795,-0.0192261
172,0,0.0201416,0.020752,0.017395,-0.00457764,0.0363159,0.0436401,0.0375366,0.0253296,0.000915527,-1.08948,-0.00244141,0.000305176,0.017395
172,1,0.0247192,0.00579834,0.0460815,0.0228882,0.0186157,-0.0393677,0.0274658,0.0357056,0.0198364,-1.16882,-0.010376,0.00549316,0.0320435
172,2,0.0247192,0.00793457,0.0177002,0.0418091,0.0170898,0.0213623,0.0286865,0.022583,0.0350952,-1.29242,-0.0164795,0.0189209,-0.0012207
172,3,0.0231934,0.00915527,0.0183105,0.0286865,0.0317383,0.0238037,0.0335693,0.022583,0.0268555,-1.33514,-0.00610352,0.0616455,0.0262451
172,4,0.0186157,-0.0164795,0.010376,0.0265503,0.0320435,0.0280762,0.0201416,0.0253296,0.0256348,-1.41785,-0.00579834,0.00610352,0.0186157
173,0,0.00762939,0.0088501,0.0231934,0.00976562,0.0311279,-0.020752,0.0137329,0.0390625,-0.027771,-1.20056,-0.0152588,-0.0354004,0.0521851
173,1,0.022583,0.00671387,0.010376,0.0320435,0.020752,0.0265503,0.0430298,0.017395,0.0137329,-0.567932,-0.0183105,-0.00213623,0.0201416
173,2,0.0186157,0.0088501,0.0146484,0.0332642,0.0161743,0.0106812,0.0292969,-0.0259399,0.0106812,-1.05988,-0.0164795,0.00915527,0.0134277
173,3,0.0137329,0.0231934,0.0161743,0.0216675,0.0286865,0.0289917,0.0119019,0.0286865,0.00946045,-1.03485,-0.00915527,0.0137329,0.000610352
173,4,0.0292969,0.038147,0.0164795,0.0354004,0.06073,0.0308228,0.0366211,0.0143433,0.0112915,-0.890503,-0.0158691,0.0390625,0.0299072
174,0,0.00518799,0.00183105,0.0222778,0.012207,0.0238037,0.0363159,0.0338745,0.0177002,0.0238037,-1.22406,-0.0228882,0.0112915,0.0167847
174,1,-0.0259399,0.0125122,0.0146484,0.0430298,0.0311279,0.0238037,0.0311279,0.0177002,0.00946045,-0.0314331,-0.0231934,0.0100708,0.0186157
174,2,-0.00793457,-0.0170898,0.0146484,0.0344849,0.0384521,0.0289917,0.0140381,0.039978,0.0286865,0.0372314,-0.0128174,0.00854492,0.010376
174,3,0.0454712,0.0164795,0.0189209,-0.0375366,0.0231934,0.0378418,0.0421143,0.0250244,0.0143433,-0.0192261,-0.0088501,0.0180054,0.0134277
174,4,0.0088501,0.0143433,0.0534058,0.0198364,0.0195312,0.0411987,0.0424194,0.027771,0.0189209,-0.071106,-0.00976562,0.0088501,0.0152588
175,0,-0.0411987,0.0332642,0.0146484,0.0610352,0.0134277,0.0231934,0.012207,0.0201416,0.00579834,-0.102844,-0.0115967,0.00793457,0.00762939
175,1,0.0302124,0.0210571,0.0384521,0.0134277,0.0418091,0.0311279,0.0289917,0.0421143,0.0128174,-0.136719,-0.0143433,0.00671387,0.0137329
