Devices
1000
,,Myon - Voltage,,,,,,,,,,,,,
Frame,Sub Frame,GC-M,TA,SOL,VM,VL,RF,BF,ST,GLUT-M,Gracilis,EO,GC-L,Semimembranosus
,,V,V,V,V,V,V,V,V,V,V,V,V,V
1,0,0.0259399,0.0665283,0.0335693,0.0415039,0.0448608,0.00640869,0.0247192,0.283508,0.0088501,0.00793457,-0.0244141,0.0149536,0.0152588
1,1,0.0302124,0.0268555,0.0335693,0.015564,0.045166,-0.055542,-0.00457764,0.239868,0.0119019,0.0680542,-0.0204468,0.0265503,-0.0299072
1,2,0.0302124,0.0338745,-0.00762939,0.0283813,0.0311279,-0.484009,-0.000915527,0.258789,0.0234985,0.0128174,-0.0231934,0.0201416,0.0143433
1,3,0.0189209,0.0460815,0.027771,0.0137329,0.0274658,-0.562439,0.0616455,0.181274,0.00854492,0.0186157,-0.0241089,0.0292969,0.0204468
1,4,-0.00213623,0.0332642,0.0305176,0.0219727,0.0216675,-0.353088,0.0271606,0.213928,0.0228882,0.0167847,0.00305176,0.00579834,0.0177002
2,0,0.0222778,0.0454712,0.0222778,0.0363159,0.0439453,-0.132141,0.0131226,0.172424,0.03479,-0.00152588,-0.0274658,0.0296021,0.0137329
2,1,0.0137329,-0.00335693,0.0289917,0.0228882,0.0143433,0.0476074,0.0268555,0.211182,0.0378418,0.0170898,-0.0271606,0.0338745,0.020752
2,2,0.0131226,0.0808716,0.0216675,0.0228882,0.0643921,-0.0698853,0.027771,0.246582,0.015564,0.022583,-0.0228882,0.0247192,0.00976562
2,3,0.0152588,0.022583,0.0354004,0.0357056,0.0350952,-0.368958,0.0314331,0.186157,0.00244141,-0.00518799,-0.00793457,0.0125122,0.0360107
2,4,0.0149536,0.0363159,0.0247192,0.0308228,0.0338745,-0.435486,0.0274658,0.177307,0.0506592,0.00305176,-0.0149536,0.0311279,0.0222778
3,0,0.0158691,0.0234985,0.0421143,0.0344849,0.0372314,-0.330505,0.0186157,0.160522,0.00701904,0.0134277,-0.043335,0.0137329,0.0189209
3,1,0.00305176,0.0149536,0.0506592,0.0186157,0.0326538,-0.331421,0.0271606,0.224609,0.0201416,0.00427246,-0.0253296,0.0088501,0.0350952
3,2,0.0158691,0.0430298,0.0161743,0.0262451,0.0665283,-0.152283,0.0192261,0.15625,0.0137329,0.010376,-0.0149536,-0.00305176,0.0195312
3,3,0.027771,0.0152588,0.022583,0.0283813,0.0177002,-0.160828,0.0341797,0.222168,0.0210571,0.0192261,-0.0137329,0.0198364,0.0222778
3,4,0.00396729,0.0170898,0.0387573,0.0228882,0.0259399,0.248413,0.020752,0.246277,0.00457764,-0.0177002,0.0177002,0.0366211,0.022583
4,0,0.0640869,0.0177002,0.0238037,0.0457764,0.0350952,-0.067749,0.0195312,0.270996,0.0201416,0.0216675,-0.0128174,0.00732422,0.0170898
4,1,0.0305176,0.0265503,0.0213623,0.0268555,0.0289917,-0.0802612,0.0314331,0.285034,0.0213623,0.0125122,-0.0186157,0.0167847,0.0180054
4,2,0.0112915,0.0213623,0.0167847,0.0286865,0.0259399,-0.133362,0.0445557,0.263672,0.0292969,0.0204468,-0.0189209,0.00946045,0.0158691
4,3,0.00274658,0.0128174,0.0265503,0.0274658,0.0512695,-0.0918579,0.0296021,0.318298,0.0253296,0.0180054,-0.0460815,0.0250244,0.0234985
4,4,0.0183105,0.017395,0.0183105,0.0231934,0.0387573,0.0238037,0.0201416,0.319824,0.0296021,0.00610352,-0.0323486,0.032959,0.0152588
5,0,0.00732422,0.017395,0.0265503,0.0274658,0.0292969,0.0421143,0.0238037,0.296631,0.0106812,0.0170898,-0.0228882,0.00244141,-0.0534058
5,1,0.0186157,0.0357056,0.0204468,0.0201416,0.0323486,0.10498,0.0210571,0.275879,0.0253296,0.0250244,-0.017395,0.0115967,0.027771
5,2,0.0164795,0.0384521,0.0250244,0.00274658,-0.0158691,0.000305176,0.027771,0.309143,0.027771,0.0210571,-0.0204468,0.0119019,0.0219727
5,3,-0.0332642,0.0378418,0.0152588,0.0204468,0.0335693,-0.138855,0.0286865,0.31189,0.03479,0.0125122,-0.010376,0.0115967,0.0421143
5,4,0.0231934,0.0100708,0.0158691,0.0112915,0.0305176,-0.161743,0.0335693,0.22522,-0.00762939,0.0198364,-0.0158691,0.00244141,0.0228882
6,0,0.000305176,0.0289917,0.0192261,0.010376,0.0311279,-0.118103,0.0378418,0.256042,0.0292969,0.00335693,-0.0222778,0.0161743,0.0872803
6,1,0.00152588,0.0335693,0.0115967,0.0201416,0.0320435,-0.083313,0.0384521,0.249023,0.0292969,0.0268555,-0.020752,-0.00457764,0.00244141
6,2,0.0164795,0.0219727,0.017395,0.0320435,0.032959,-0.0738525,0.0189209,0.227356,0.0262451,0.0216675,-0.0112915,0.0158691,-0.00762939
6,3,0.0369263,0.0241089,0.0195312,0.0152588,0.0241089,-0.0192261,0.038147,0.212402,0.0244141,-0.0341797,-0.0231934,0.00640869,0.0167847
6,4,0.00762939,0.0167847,0.0241089,0.012207,0.0262451,-0.00457764,0.0128174,0.234985,0.0219727,0.0653076,-0.0131226,0.00793457,0.0326538
7,0,0.0204468,0.0128174,0.017395,0.0177002,0.0177002,0.017395,0.0332642,0.223389,0.0238037,0.0213623,-0.0128174,0.0119019,0.0274658
7,1,0.0411987,0.0186157,0.0219727,0.0201416,0.0265503,-0.0442505,0.0378418,0.128479,-0.012207,0.0112915,-0.0262451,0.00457764,0.0302124
7,2,0.0140381,0.00579834,0.0201416,0.0189209,0.0421143,0.022583,0.0302124,0.246887,0.0234985,0.0109863,-0.0201416,0.0183105,0.0189209
7,3,0.0241089,-0.00732422,0.000915527,0.0283813,0.0283813,0.0421143,0.0274658,0.263977,0.017395,0.022583,-0.0189209,0.0238037,0.0265503
7,4,0.022583,0.0183105,0.0317383,0.0119019,0.0262451,0.310669,0.0357056,0.441895,0.0387573,0.0228882,-0.0241089,0.0366211,0.0167847
8,0,0.0161743,0.00701904,0.032959,0.0189209,0.0262451,0.276489,0.0335693,0.357361,0.0195312,0.0177002,-0.0216675,0.0149536,-0.0012207
8,1,0.010376,-0.017395,0.00640869,0.022583,0.03479,0.270996,0.0274658,0.18219,-0.027771,0.0140381,-0.0167847,0.0192261,0.0164795
8,2,0.012207,0.00274658,0.0137329,0.0292969,0.0143433,0.276489,0.038147,0.0296021,-0.0338745,0.0259399,-0.022583,0.0506592,0.0241089
8,3,0.0109863,0.0088501,0.015564,0.00610352,0.0274658,0.264282,0.0344849,0.153503,0.0186157,0.0378418,-0.0158691,0.0177002,0.0158691
8,4,-0.000915527,0.0231934,0.0183105,0.0195312,0.0338745,0.220032,0.0314331,0.153503,0.0274658,0.0228882,-0.0213623,0.0308228,0.00793457
9,0,0.0219727,0.0177002,0.0119019,0.0582886,0.0344849,0.209045,-0.0128174,0.110779,0.0244141,0.0152588,-0.0152588,0.00488281,0.012207
9,1,0.00640869,0.0143433,0.00946045,0.00915527,-0.000305176,0.18219,0.038147,0.271606,0.0177002,0.0228882,-0.0387573,0.010376,-0.00671387
9,2,0.0180054,0.0408936,0.0222778,0.0100708,0.0283813,0.17334,0.0256348,0.153503,0.022583,0.0228882,-0.0421143,-0.0170898,0.0186157
9,3,0.00457764,0.0302124,-0.0210571,0.0137329,0.0231934,0.180359,0.0323486,0.386963,0.050354,0.0256348,-0.00518799,0.0396729,0.0222778
9,4,0.0177002,0.03479,0.0186157,0.00823975,0.0305176,0.156555,0.015564,0.370789,0.078125,0.038147,-0.017395,-0.00610352,0.00793457
10,0,0.0152588,0.0219727,0.0216675,0.0299072,0.0259399,0.155945,0.0204468,0.613403,0.00183105,0.0567627,-0.0305176,0.00793457,-0.0256348
10,1,-0.00152588,0.0131226,0.0231934,0.0219727,0.0360107,0.0872803,0.0314331,1.297,0.0292969,0.0201416,-0.0244141,0.0158691,0.00823975
10,2,0.0149536,0.0280762,0.00396729,0.00244141,0.0262451,0.13031,0.0128174,0.639343,0.0305176,0.0445557,-0.0167847,-0.00244141,0.0195312
10,3,0.00793457,0.0167847,-0.00183105,0.0238037,0.0317383,0.145264,0.0308228,0.446167,0.0378418,0.0152588,0.0265503,0.00640869,0.0146484
10,4,0.0143433,0.0201416,0.0109863,0.0271606,0.062561,0.109863,0.0158691,-0.657959,0.0283813,0.038147,-0.0265503,0.0198364,0.0125122
11,0,0.00640869,0.0112915,0.00854492,0.0149536,-0.00183105,0.129089,0.0192261,-0.135803,0.0308228,0.0244141,-0.0186157,0.00793457,0.0311279
11,1,0.00305176,0.0088501,0.00518799,0.0231934,0.0299072,0.132141,0.0378418,0.932922,0.0289917,0.0268555,-0.0201416,-0.00610352,0.0115967
11,2,0.0247192,0.00274658,0.0253296,0.071106,0.027771,0.128174,0.0259399,0.851746,0.0354004,0.0299072,-0.0170898,0.0271606,0.0186157
11,3,0.00366211,-0.00427246,-0.00366211,0.0143433,0.0201416,0.0769043,0.0512695,1.13251,0.0323486,0.0256348,-0.012207,0.000915527,0.0302124
11,4,0.00762939,0.0119019,0.000305176,0.0228882,0.0125122,0.10376,0.0241089,1.17004,0.0448608,0.0192261,-0.0131226,0.00732422,0.0244141
12,0,0.0152588,0.00579834,0.00793457,0.00427246,0.00549316,0.108032,0.0112915,1.59363,0.0131226,0.0256348,-0.0189209,0.0112915,0.0115967
12,1,-0.0143433,0.000915527,0.0186157,0.0479126,0.0238037,0.108337,0.045166,1.1261,0.0228882,-0.00244141,-0.017395,0.0231934,-0.0421143
12,2,-0.0100708,0.00488281,0.0241089,0.0311279,0.0457764,0.0949097,0.0436401,1.18652,0.0363159,0.0222778,-0.0344849,0.0143433,-0.00549316
12,3,0.022583,0.00549316,0.00366211,0.0695801,0.00549316,0.0842285,0.0146484,0.221863,0.0408936,0.039978,-0.00762939,-0.00732422,-0.000610352
12,4,0.00488281,0.0262451,0.00976562,0.0256348,0.0308228,0.0961304,0.0311279,-0.596313,0.0201416,0.0286865,-0.00823975,0.0256348,0.0292969
13,0,0.00762939,0.00793457,0.0125122,0.0189209,0.0238037,0.0888062,0.0274658,-0.286865,0.0286865,0.0341797,-0.022583,0.0134277,-0.00244141
13,1,0.0164795,0.0500488,-0.00762939,0.0177002,0.0256348,0.100098,0.0280762,0.175781,0.0186157,0.0344849,-0.0344849,-0.0482178,0.0253296
13,2,0.00915527,0.0128174,0.000305176,0.0183105,0.00152588,0.108032,0.0332642,0.566406,0.0308228,0.017395,-0.0164795,0.0183105,0.0125122
13,3,0.00793457,0.0238037,0.00793457,0.0149536,0.0131226,0.100098,0.0311279,0.960999,0.0268555,0.027771,-0.0253296,0.00366211,0.00732422
13,4,0.0180054,0.020752,0.00305176,-0.0152588,0.0289917,0.0930786,0.0888062,1.02417,0.0283813,0.00396729,-0.0204468,0.0219727,0.0372314
14,0,0.0274658,0.0390625,0.0152588,-0.0189209,0.0253296,0.0848389,0.0643921,-0.0332642,0.0283813,0.0238037,-0.0228882,0.0204468,0.0143433
14,1,0.010376,0.0238037,0.0158691,0.0128174,0.00305176,0.0650024,0.0494385,0.519104,0.0247192,0.0228882,0.00457764,0.0115967,0.0219727
14,2,0.00946045,0.0201416,-0.000610352,0.00976562,0.0146484,0.0445557,0.0357056,-0.0915527,0.0820923,0.0250244,-0.020752,-0.00946045,0.0183105
14,3,0.0177002,0.00793457,0.00213623,0.0198364,0.0143433,0.0695801,0.0213623,0.323792,0.0268555,0.03479,-0.015564,0.015564,0.00762939
14,4,0.0158691,0.0158691,0.0158691,0.0115967,0.010376,0.117798,0.0439453,0.447083,0.00915527,0.00579834,-0.0292969,0.0198364,0.00976562
15,0,0.0234985,0.00305176,-0.0271606,0.0164795,0.0228882,0.032959,0.032959,0.46875,0.0158691,0.0186157,-0.0140381,0.0128174,0.0671387
15,1,0.0115967,-0.00579834,0.0238037,0.0219727,0.0158691,0.020752,0.0311279,0.202942,-0.0164795,0.0286865,-0.0354004,0.0219727,0.0183105
15,2,0.0372314,-0.00518799,0.0158691,0.0112915,0.0238037,0.0488281,0.00396729,-0.0961304,0.0183105,0.0357056,-0.015564,0.0241089,0.0299072
15,3,0.0213623,0.0012207,0.0128174,0.00244141,0.0561523,0.088501,0.0274658,0.085144,0.0479126,0.0241089,-0.0247192,0.0100708,0.0238037
15,4,0.0567627,0.00213623,0.010376,0.0234985,0.0222778,0.119324,0.0265503,-0.352783,0.015564,0.0143433,-0.010376,0.022583,0.0198364
16,0,0.0335693,0.00488281,-0.00396729,0.0247192,0.017395,0.0537109,0.022583,-1.8692,-0.0137329,-0.00152588,-0.0186157,0.057373,0.0112915
16,1,0.0140381,-0.0134277,0.0134277,0.0125122,0.0234985,0.0350952,0.0558472,-1.23718,0.0418091,0.0411987,-0.0296021,0.00793457,-0.0164795
16,2,0.0296021,0.00579834,0.0180054,0.0134277,0.0247192,0.0204468,0.0476074,0.321045,0.0357056,0.0265503,-0.0296021,0.00640869,0.0109863
16,3,0.0253296,0.0543213,0.00732422,0.00335693,0.0128174,0.0454712,0.0350952,-0.563354,0.0320435,0.0292969,-0.027771,0.0640869,0.0296021
16,4,0.00610352,-0.0286865,0.0109863,0.0146484,0.0469971,0.0115967,0.0296021,-1.64185,0.0234985,0.0280762,-0.0228882,0.0375366,0.0256348
17,0,0.00976562,0.0228882,0.0259399,0.0115967,0.0201416,0.0170898,0.0415039,-0.854187,0.0286865,0.0192261,-0.0350952,0.00366211,0.0195312
17,1,0.0299072,0.0234985,0.00671387,0.0170898,0.015564,0.0158691,0.0125122,-0.776367,0.0344849,0.00976562,-0.0320435,0.0195312,0.0247192
17,2,0.0213623,0.0152588,0.0088501,0.0134277,0.0256348,0.0189209,0.0271606,-1.6156,0.0164795,-0.00366211,-0.032959,0.00579834,0.020752
17,3,0.0894165,0.0234985,0.000915527,0.0140381,0.010376,0.00152588,0.0259399,-1.31866,0.0302124,0.0283813,-0.0387573,0.0234985,0.0280762
17,4,0.0256348,0.0387573,-0.0100708,0.00976562,0.0143433,0.0100708,0.0253296,-0.515137,0.0280762,0.017395,-0.0302124,0.0289917,0.0244141
18,0,0.0186157,0.0518799,0.0109863,0.020752,-0.0253296,-0.0131226,0.027771,0.462036,0.0350952,0.0268555,-0.0335693,0.022583,0.0216675
18,1,-0.0100708,0.071106,0.0228882,0.00427246,-0.0411987,-0.0204468,0.0292969,0.292664,0.045166,0.0289917,-0.0234985,0.0317383,0.0253296
18,2,0.0158691,0.0195312,0.0634766,0.0292969,0.0137329,-0.0656128,0.0314331,-0.0854492,0.0415039,0.0384521,-0.0180054,0.0088501,0.0189209
18,3,0.0250244,0.00427246,0.0106812,0.0170898,0.0204468,0.00244141,0.0595093,0.00274658,0.0479126,-0.0265503,-0.0286865,0.0125122,0.0518799
18,4,0.0360107,0.0158691,0.0134277,0.0216675,0.0195312,-0.0131226,0.0201416,-0.177917,0.020752,0.0320435,-0.0305176,0.0271606,0.0219727
19,0,0.0320435,0.0100708,0.0231934,-0.0576782,0.0119019,-0.0320435,0.0183105,-0.176697,0.038147,0.0415039,-0.0283813,0.0259399,0.0360107
19,1,0.0222778,0.0311279,0.0201416,0.00457764,0.015564,-0.015564,0.0405884,-0.194092,0.03479,0.0436401,-0.0137329,0.00274658,0.0247192
19,2,0.0442505,0.00671387,0.0164795,-0.0308228,0.00671387,-0.0268555,-0.0421143,-0.464478,0.0305176,0.0341797,-0.03479,0.0265503,0.0222778
19,3,0.00732422,0.0119019,0.0231934,0.0128174,0.00915527,0.000305176,0.017395,-0.185242,0.0421143,0.0387573,-0.0344849,0.0195312,0.0299072
19,4,0.027771,0.0109863,0.0454712,0.0350952,0.0289917,0.00823975,0.0418091,0.826111,0.0180054,0.0387573,-0.0219727,0.0189209,0.0326538
20,0,0.0463867,0.00946045,0.0360107,0.0341797,0.0109863,-0.0570679,0.00549316,1.09589,-0.00274658,0.0323486,-0.0256348,0.0192261,0.0100708
20,1,0.0320435,0.0198364,0.00213623,0.0128174,-0.00244141,0.00396729,0.0805664,0.767517,-0.00244141,0.0970459,-0.00427246,0.0195312,0.0292969
20,2,0.0201416,0.0292969,0.0119019,0.0109863,0.0320435,0.00366211,0.0106812,0.601807,0.0308228,0.0378418,-0.0112915,0.0192261,0.00579834
20,3,0.0286865,-0.00457764,0.0140381,0.0167847,0.0180054,0.032959,0.0305176,0.836182,0.0769043,0.010376,-0.0146484,0.0131226,0.0134277
20,4,0.0289917,0.0219727,0.00579834,0.00213623,0.00213623,-0.0012207,0.0268555,0.690002,0.0396729,0.0567627,-0.0323486,0.0286865,0.0201416
21,0,-0.00976562,0.0219727,0.0161743,0.0177002,0.0137329,-0.0112915,0.0250244,0.449829,0.0326538,0.0363159,-0.0262451,0.020752,0.0195312
21,1,0.0100708,0.0228882,0.0131226,0.0234985,0.0137329,-0.0195312,0.0314331,0.625,0.0323486,0.0387573,-0.0256348,0.00457764,0.00183105
21,2,0.0314331,0.0427246,0.010376,0.010376,0.000305176,0.0296021,0.0164795,0.69458,0.00427246,0.0274658,-0.039978,0.0128174,0.00946045
21,3,0.0454712,0.0238037,0.0177002,0.00579834,-0.017395,0.0256348,0.015564,0.317993,0.027771,0.0506592,0.00579834,0.0210571,0.015564
21,4,0.038147,0.0262451,0.0140381,0.0109863,0.0088501,0.00823975,0.0274658,0.170898,0.0256348,0.0308228,-0.0228882,0.0640869,0.0286865
22,0,0.0387573,0.0302124,0.00183105,0.00366211,0.0250244,-0.0485229,0.0195312,0.148926,0.0256348,0.0250244,-0.0756836,0.0259399,0.0296021
22,1,0.0323486,0.0180054,0.0137329,0.00579834,0.00976562,-0.0338745,0.0286865,-0.00396729,0.0234985,0.0408936,-0.0283813,0.06073,0.00518799
22,2,0.0442505,0.00518799,0.0262451,0.0109863,0.017395,0.0119019,0.0201416,-0.140381,0.0488281,0.0369263,-0.0262451,0.0271606,0.0784302
22,3,0.0204468,0.00671387,0.0128174,0.032959,0.00823975,0.0253296,0.0268555,-0.275269,0.0357056,0.0476074,-0.0332642,0.0180054,0.0238037
22,4,0.0296021,0.0198364,0.00610352,0.0134277,-0.0283813,-0.0241089,0.0186157,-0.106506,0.0378418,0.0292969,-0.0341797,0.0161743,0.0259399
23,0,0.0369263,0.00915527,0.0088501,0.00732422,-0.00701904,-0.0134277,0.0311279,-1.58813,0.0265503,0.0250244,-0.0296021,0.0140381,0.0280762
23,1,0.0369263,0.0512695,0.0286865,0.0119019,0.0140381,0.00793457,0.0402832,-2.04315,0.0228882,0.0497437,-0.0338745,0.0192261,0.0210571
23,2,0.0320435,0.00671387,0.0396729,0.00671387,0.0125122,0.0411987,0,-1.99585,0.0442505,0.0253296,-0.0466919,0.00579834,0.0250244
23,3,0.0387573,-0.0140381,0.043335,0.0192261,0.0402832,-0.0213623,0.0115967,-1.86462,0.0323486,0.0384521,-0.0506592,0.0195312,0.0198364
23,4,0.0341797,0.0183105,0.0375366,0.0283813,0.00823975,-0.00213623,0.0204468,-1.67633,0.0109863,0.0161743,-0.0350952,0.0143433,0.0161743
24,0,0.0524902,0.0012207,0.0311279,0.0112915,0.00610352,0.00793457,0.0268555,-1.51947,0.0177002,0.0186157,0.0152588,0.0274658,0.020752
24,1,0.0341797,0.0201416,0.0152588,0.0280762,0.00244141,0.00396729,0.0170898,-1.36108,0.020752,0.0241089,-0.0393677,0.032959,0.0177002
24,2,0.0320435,0.0283813,0.00854492,0.0210571,0.0613403,0.000915527,0.0167847,-1.21826,0.00610352,0.0366211,-0.0253296,0.0360107,0.0189209
24,3,0.0338745,-0.00152588,-0.032959,0.0112915,0.0177002,0.039978,0.027771,-1.09314,0.0372314,0.027771,-0.0192261,0.0186157,0.0231934
24,4,0.0244141,0.0234985,0.00915527,0.071106,0.0183105,0.0228882,0.00457764,-0.953369,0.0308228,0.0485229,-0.0320435,0.0238037,0.0195312
25,0,0.0305176,0.020752,0.00854492,0.0186157,0.00762939,0.0302124,0.0152588,-0.812988,0.0164795,0.0408936,-0.0271606,0.0292969,0.0299072
25,1,0.0201416,0.0280762,0.0134277,0.0228882,-0.00762939,0.0228882,0.0244141,-0.727539,0.0442505,0.0210571,0.00823975,0.0335693,0.0234985
25,2,-0.00854492,0.0302124,0.00762939,0.010376,0.00366211,0.0418091,0.0256348,-0.641479,0.0289917,0.0170898,-0.010376,0.0100708,0.0167847
25,3,0.00579834,0.0515747,0.00366211,0.0137329,0.0131226,0.0424194,-0.0222778,-0.551758,0.017395,-0.00396729,-0.0195312,0.0183105,0.0164795
25,4,0.0186157,0.0317383,-0.00457764,0.0189209,-0.00335693,0.0521851,0.0210571,-0.474854,0.0216675,0.0262451,-0.0106812,0.0201416,0.012207
26,0,0.0210571,0.0445557,0.0158691,0.00640869,0.0152588,-0.0143433,0.0289917,-0.401611,0.0198364,-0.0509644,-0.0152588,0.0134277,0.0411987
26,1,0.0317383,0.0604248,0.0195312,0.0192261,0.0146484,-0.0204468,0.0149536,-0.334167,0.0183105,0.0299072,-0.0320435,0.0183105,0.0161743
26,2,0.0161743,0.0360107,0.00579834,-0.00793457,0.0201416,-0.0100708,0.0741577,-0.271606,0.0198364,-0.00579834,-0.0396729,0.0216675,-0.000610352
26,3,0.020752,0.0396729,-0.00274658,0.00366211,0.0131226,-0.00366211,0.00793457,-0.214539,0.027771,0.0137329,-0.0088501,0.0231934,0.0366211
26,4,0.0299072,0.0378418,0.0253296,0.015564,0.0231934,-0.0201416,0.020752,-0.170898,0.0112915,0.0149536,-0.0286865,0.0411987,0.017395
27,0,0.0442505,0.0274658,-0.00183105,0.015564,0.0149536,0.010376,0.0231934,-0.10437,-0.0195312,0.0231934,-0.0430298,0.0686646,0.0299072
27,1,0.0250244,0.0411987,0.0012207,0.0119019,0.0189209,0.111084,0.0134277,-0.06073,0.0149536,0.022583,-0.0372314,0.0387573,0.050354
27,2,0.0302124,0.0158691,0.0192261,0.0241089,0.0112915,0.158386,0.0161743,0.00427246,0.0170898,0.0430298,-0.0350952,0.022583,-0.0256348
27,3,-0.0222778,0.020752,0.0186157,0.0183105,0.0137329,-0.027771,0.0134277,0.0241089,0.0158691,0.0140381,-0.0393677,0.0253296,0.0256348
27,4,0.0323486,0.0112915,0.0494385,0.0115967,0.0158691,-0.0656128,0.0128174,0.0372314,0.0167847,0.022583,-0.0375366,0.0219727,0.0482178
28,0,0.0289917,0.00915527,0.0320435,0.0115967,0.0143433,-0.0253296,0.0115967,0.0610352,0.0241089,0.010376,-0.022583,0.0228882,0.0216675
28,1,0.0253296,0.0183105,0.020752,0.00671387,0.0106812,0.027771,0.0201416,0.0790405,-0.0183105,0.0314331,-0.0189209,0.0714111,0.017395
28,2,0.0283813,0.0418091,0.03479,0.015564,0.00915527,0.0164795,0.0158691,0.0946045,0.0408936,0.0335693,-0.0354004,0.067749,0.0112915
28,3,0.0299072,0.0146484,0.00366211,0.0189209,0.00610352,0.0384521,0.00762939,0.0741577,0.0167847,0.0231934,-0.0350952,0.032959,0.0354004
28,4,0.0491333,0.0216675,0.0247192,0.00793457,0.00793457,0.0994873,0.0161743,0.0784302,0.0177002,0.0280762,-0.0259399,0.0292969,0.0314331
29,0,0.0296021,-0.0387573,0.0305176,0.0192261,-0.0186157,0.0323486,0.0143433,0.0811768,0.0161743,0.0262451,-0.0238037,0.0424194,0.0177002
29,1,0.027771,0.0317383,0.022583,0.0231934,0.0128174,0.055542,0.0137329,0.0946045,0.0210571,0.043335,-0.0384521,0.0384521,0.0491333
29,2,0.0326538,0.0439453,0.020752,0.0439453,0.0186157,0.078125,-0.000915527,0.0769043,-0.0134277,0.0143433,-0.0335693,0.0579834,0.0195312
29,3,0.0491333,0.0509644,0.0445557,0.0314331,0.0143433,0.0515747,0.0210571,0.239258,0.0210571,0.0137329,-0.0366211,0.0216675,0.0271606
29,4,0.0259399,0.0485229,0.0311279,0.0241089,-0.00671387,0.0689697,0.0210571,0.238953,0.0234985,0.0177002,-0.0411987,0.0177002,0.0158691
30,0,0.0570679,0.0305176,0.0265503,0.0149536,0.0112915,0.0881958,0.0323486,0.279236,0.0216675,0.0186157,-0.0289917,0.0338745,0.0189209
30,1,0.0265503,0.0421143,0.0219727,0.0219727,0.00915527,0.176392,0.00854492,0.323181,-0.00152588,0.0177002,-0.00335693,0.0170898,0.0396729
30,2,0.0234985,0.0430298,0.0708008,0.0213623,0.0219727,0.214233,0.0192261,0.259399,0.0247192,0.0170898,-0.022583,0.0238037,0.0271606
30,3,0.0302124,-0.00366211,0.0466919,0.0305176,0.0588989,0.168457,0.0158691,0.296021,0.0152588,0.00396729,-0.017395,0.0231934,-0.00183105
30,4,0.0326538,0.0311279,0.0378418,0.0143433,0.0241089,0.0518799,0.012207,0.285034,0.0271606,0.0231934,-0.0292969,0.0494385,0.0363159
31,0,0.0210571,0.03479,0.0448608,0.0204468,0.0146484,0.0958252,0.00396729,0.307007,0.0119019,0.0512695,-0.0201416,0.0363159,0.0308228
31,1,0.0418091,0.015564,0.0567627,0.0192261,0.0164795,0.155334,0.0250244,0.855103,0.0213623,0.0131226,-0.0161743,0.0158691,0.050354
31,2,0.0302124,0.0256348,0.0256348,0.0152588,0.0177002,0.168457,0.0134277,2.36359,0.00488281,0.0222778,-0.020752,0.0375366,0.017395
31,3,0.038147,0.0308228,0.0292969,0.0271606,0.0216675,0.15625,0.0177002,2.97363,0.0219727,0.0231934,-0.00549316,0.0213623,0.0302124
31,4,0.0360107,0.00274658,0.0436401,0.0186157,0.0289917,0.162964,0.0164795,2.64465,0.0338745,0.0186157,-0.0201416,0.0088501,0.00793457
32,0,0.0564575,0.0296021,0.0299072,0.0164795,0.0164795,0.155029,0.0134277,2.15332,0.0216675,0.0250244,-0.0576782,0.0186157,0.0357056
32,1,0.0241089,0.0177002,0.0216675,0.0231934,0.0152588,0.112,0.0137329,0.150146,0.0106812,0.0112915,-0.0262451,0.0262451,0.0360107
32,2,0.0271606,0.0405884,0.0149536,0.0177002,0.0271606,0.09552,0.0692749,0.625305,0.027771,-0.0302124,-0.0244141,0.0363159,0.0366211
32,3,0.0497437,0.0271606,0.0238037,0.00183105,0.000305176,0.0997925,0.0488281,-0.181274,0.0109863,0.0482178,-0.0152588,0.0299072,0.0292969
32,4,0.0320435,0.0311279,0.0247192,-0.0314331,0.0265503,0.0836182,-0.00396729,1.27045,0.0234985,0.010376,-0.0234985,0.0289917,0.0439453
33,0,0.032959,0.0195312,0.027771,0.0131226,0.0152588,0.101624,0.0180054,-0.112305,0.0119019,0.0296021,-0.0311279,0.0341797,0.0222778
33,1,0.0299072,0.0372314,-0.0012207,0.0134277,0.00793457,0.0869751,0.00946045,0.204163,0.0161743,0.0219727,-0.0265503,0.0244141,0.0222778
33,2,0.0210571,0.0445557,0.0302124,0.0167847,0.00701904,0.00305176,0.0238037,1.01105,0.0189209,0.0265503,-0.0393677,0.0198364,0.0213623
33,3,0.0231934,0.0509644,0.0253296,0.0201416,0.0146484,-0.155029,0.0164795,0.620422,0.0299072,0.0442505,-0.0274658,0.0534058,0.0378418
33,4,0.0088501,0.0366211,0.0421143,0.00366211,0.0262451,-0.118103,0.000915527,-0.106201,-0.000610352,0.0112915,-0.0262451,0.0140381,0.0259399
34,0,0.0189209,0.0384521,0.0115967,0.0268555,0.020752,-0.137634,0.0158691,-0.865173,-0.00823975,0.00183105,-0.0268555,0.0418091,0.0338745
34,1,0.0180054,0.0250244,0.0201416,0.0366211,0.0198364,-0.191956,0.0186157,0.0738525,-0.010376,0.0250244,-0.0268555,0.0198364,0.0286865
34,2,0.0308228,0.0427246,0.0469971,0.0250244,0.022583,-0.194397,0.00335693,0.361328,0.0131226,0.0164795,-0.0289917,0.0408936,0.0366211
34,3,-0.0109863,0.0305176,0.0115967,0.0656128,0.0341797,-0.134888,0.0357056,0.982971,0.0198364,0.0189209,0,0.0350952,0.0454712
34,4,0.03479,0.0256348,0.093689,0.0323486,0.000305176,-0.0997925,0.00610352,-0.4245,-0.0213623,0.027771,-0.0283813,0.0390625,0.0387573
35,0,0.0415039,0.0231934,0.027771,-0.0320435,0.0283813,-0.131531,0.010376,0.404663,0.012207,0.0183105,-0.0314331,0.0375366,0.0161743
35,1,0.0299072,0.0143433,0.0515747,0.0192261,-0.00854492,-0.109863,0.0149536,1.43677,0.0140381,0.017395,-0.0393677,0.0341797,0.0396729
35,2,0.0146484,0.0201416,0.027771,0.0283813,0.083313,-0.093689,0.0140381,1.92169,0.0119019,0.0210571,-0.0238037,0.0222778,0.0228882
35,3,0.0393677,0.015564,0.0170898,0.0256348,0.0112915,-0.0509644,-0.015564,2.00562,0.0128174,0.0140381,-0.0405884,0.0213623,0.0164795
35,4,0.0228882,0.0180054,0.0369263,0.0195312,0.0234985,-0.0650024,0.0222778,1.91315,0.0274658,0.0137329,-0.0186157,0.015564,0.0219727
36,0,0.0125122,0.0280762,0.0250244,0.0256348,0.0140381,-0.0454712,0.0161743,1.63055,0.0149536,0.0506592,-0.0305176,0.0195312,0.0189209
36,1,0.0350952,0.0170898,0.020752,0.0189209,0.0323486,-0.00457764,0.0201416,1.922,0.015564,0.0100708,-0.0262451,0.0253296,0.0228882
36,2,0.0149536,0.0158691,0.0402832,0.020752,0.0238037,-0.0247192,0.0195312,1.4267,0.00701904,0.0149536,-0.0314331,0.0244141,0.0109863
36,3,0.0326538,0.0469971,0.0408936,0.0332642,0.0106812,0.00396729,0.0088501,-0.490112,0.000915527,0.017395,-0.0360107,0.0415039,0.0363159
36,4,0.0262451,0.0921631,0.0387573,0.0268555,0.0509644,0.015564,0.0112915,0.603638,0.0158691,0.00671387,-0.0198364,0.0457764,0.0247192
37,0,0.0201416,0.0280762,0.0234985,0.0228882,0.0140381,-0.0146484,0.0259399,0.690002,0.0167847,0.0137329,-0.0161743,0.0109863,0.0152588
37,1,0.0115967,0.0527954,0.0198364,0.0134277,0.0253296,0.0128174,0.012207,-1.21277,-0.00335693,0.00183105,-0.0183105,-0.00488281,0.010376
37,2,0.0344849,0.0286865,0.0234985,0.0323486,0.0195312,-0.691223,0.0137329,0.337524,0.020752,0.00854492,-0.0610352,0.0161743,0.0222778
37,3,0.00976562,0.038147,-0.0143433,0.0210571,0.015564,-1.84875,0.0204468,0.581055,0.0164795,0.00671387,-0.0256348,0.0338745,-0.0439453
37,4,0.0189209,0.090332,0.017395,0.0402832,0.0604248,-1.73798,0.0222778,0.310974,0.0128174,0.022583,-0.0280762,0.0115967,0.017395
38,0,0.00610352,0.0308228,0.0268555,-0.0137329,0.015564,-1.62964,-0.03479,1.28601,0.0131226,-0.0186157,-0.0473022,0.0189209,0.0216675
38,1,0.00610352,0.0360107,0.0259399,-0.0137329,0.0241089,-1.63635,0.0244141,0.683594,0.0210571,0.0219727,-0.0186157,0.0128174,0.0119019
38,2,-0.0262451,0.03479,0.0262451,0.00396729,0.0326538,-1.49384,0.0167847,-0.640259,-0.00274658,0.0274658,-0.0378418,0.00671387,0.0311279
38,3,-0.0357056,0.0302124,0.0323486,0.0421143,0.0259399,-1.39954,0.00610352,-0.966187,0.0112915,0.0286865,-0.0100708,0.0299072,0.0296021
38,4,0.0393677,0.0408936,0.0469971,0.038147,0.0167847,-1.31256,0.0234985,-0.57251,0.0106812,0.0134277,-0.0256348,0.0280762,0.03479
39,0,0.0387573,0.0125122,0.0274658,-0.0219727,0.0439453,-0.82428,0.0186157,-1.54236,0.0164795,0.010376,-0.0540161,0.0308228,0.0250244
39,1,0.0210571,0.0262451,0.0289917,0.0427246,0.022583,-0.836792,0.0244141,-0.471802,-0.0167847,0.0134277,-0.0241089,-0.0088501,0.0265503
39,2,0.0247192,0.0244141,0.0411987,0.0189209,0.0344849,-0.662537,0.0170898,-0.928955,0.022583,0.0369263,-0.0256348,0.0427246,-0.0265503
39,3,0.0219727,0.0234985,0.00488281,0.0238037,0.020752,-0.583191,0.0100708,0.0405884,-0.0344849,0.015564,-0.0213623,0.0338745,0.0378418
39,4,0.0213623,-0.00183105,0.022583,0.0445557,0.0430298,-0.627136,0.0112915,-0.107117,0.00732422,0.00640869,-0.0253296,0.0253296,0.0164795
40,0,-0.00183105,0.0149536,0.0418091,0.0265503,0.022583,-0.568848,0.000915527,-0.394897,0.0125122,0.0247192,-0.0183105,0.0283813,0.0323486
40,1,0.0222778,0.06073,0.0415039,0.0152588,0.0186157,-0.519714,0.0143433,-0.506287,0.00488281,0.00579834,-0.0238037,0.0292969,0.0100708
40,2,0.0418091,0.0262451,0.0280762,0.0292969,0.0308228,-0.430603,0.00915527,-0.33905,0.00671387,0.00335693,-0.0234985,0.0244141,0.0366211
40,3,0.0283813,0.0296021,0.0125122,0.0192261,0.0219727,-0.385132,0.012207,-0.220032,0.00823975,0.017395,-0.0125122,0.0479126,0.0219727
40,4,0.0360107,0.03479,0.0408936,0.0259399,0.0161743,-0.107727,0.0326538,-0.139465,0.00274658,0.00396729,-0.0216675,0.0244141,0.0332642
41,0,0.0109863,0.0296021,0.0286865,0.0247192,0.020752,0.0482178,0.0271606,0.090332,0.010376,0.0369263,-0.015564,0.0222778,0.0637817
41,1,0.0259399,0.0231934,0.0415039,0.0289917,0.0195312,0.396118,0.0289917,-0.206299,0.00366211,0.0262451,-0.0283813,0.027771,0.0131226
41,2,0.0140381,0.0405884,0.03479,0.0198364,0.0320435,0.839233,0.0177002,-0.151672,0.00488281,-0.000610352,-0.0262451,0.0302124,0.0360107
41,3,0.015564,0.0268555,0.0308228,0.0238037,0.0357056,0.614624,0.0128174,-0.519409,-0.000305176,0.0131226,-0.0247192,-0.0588989,0.0357056
41,4,0.055542,0.0436401,0.0375366,0.0292969,0.0231934,1.31866,0.0308228,-1.30676,0.010376,0.022583,-0.020752,0.0112915,0.0177002
42,0,0.0222778,0.0424194,0.0378418,0.00671387,0.0344849,1.30554,0.0247192,-1.7804,0.0146484,0.00976562,-0.0201416,0.0265503,0.0271606
42,1,0.00976562,-0.012207,0.0125122,0.0204468,-0.00823975,0.645447,0.0180054,-1.51276,0.00946045,0.0253296,-0.015564,0.0198364,0.0222778
42,2,0.0265503,0.0552368,0.012207,0.0387573,0.0567627,0.241394,0.0274658,-1.55609,0.0201416,0.015564,-0.0149536,0.0134277,0.0405884
42,3,0.0234985,0.0473022,0.00946045,0.0360107,0.0198364,0.027771,0.0247192,-1.41846,-0.0198364,0.0247192,-0.0170898,-0.0253296,0.0338745
42,4,0.0198364,0.032959,0.0250244,0.00366211,0.0192261,0.112305,0.0360107,-1.35529,0.03479,0.00579834,-0.00640869,0.0253296,0.0250244
43,0,0.0192261,0.022583,0.0299072,0.0469971,0.0201416,0.21759,0.0164795,-1.43097,0.0360107,0.0134277,-0.0201416,0.00915527,0.032959
43,1,0.0250244,-0.032959,0.0195312,0.0308228,0.0140381,0.0799561,0.0305176,-0.922241,0.0143433,0.0100708,-0.0222778,-0.0189209,0.027771
43,2,0.0271606,0.0234985,0.0286865,0.0338745,0.0384521,0.118713,-0.00976562,-0.888367,0.00946045,-0.0012207,-0.0140381,-0.0289917,0.0137329
43,3,0.017395,0.0158691,0.0180054,0.0308228,0.0335693,0.203857,0.0234985,-0.327148,0.0268555,0.0204468,-0.0552368,-0.0274658,0.0415039
43,4,0.083313,0.0192261,0.027771,0.0152588,0.0442505,0.306396,0.0265503,-0.185852,0.0219727,-0.0350952,-0.0198364,-0.022583,0.055542
44,0,0.0222778,0.0158691,-0.00366211,0.0128174,0.0311279,0.298767,0.0436401,-0.436707,0.00854492,0.0289917,-0.0195312,0.015564,0.0286865
44,1,0.022583,0.00854492,0.0204468,0.0192261,0.0189209,0.215454,0.0228882,-0.377197,-0.00549316,0.012207,-0.0213623,0.0234985,0.0238037
44,2,0.012207,0.00610352,0.0271606,0.0238037,0.0213623,0.196533,0.0369263,-0.30426,0.00274658,0.00671387,-0.0143433,0.0473022,0.0186157
44,3,0.0152588,0.0195312,0.0180054,0.0396729,0.0387573,0.0558472,0.0289917,-0.414429,0.0195312,0.0119019,0.0112915,0.0357056,0.0183105
44,4,0.0357056,0.0311279,0.0405884,0.0219727,0.0405884,0.093689,0.0234985,-0.0146484,0.0186157,0.00244141,-0.0149536,0.0201416,0.0552368
45,0,0.0149536,0.0231934,0.0314331,0.0268555,0.020752,-0.123291,0.0317383,0.15625,0.0119019,0.00183105,0.038147,0.0576782,0.0292969
45,1,0.0189209,0.0143433,0.0231934,0.0338745,0.0201416,-0.358582,0.0247192,0.170288,0.00732422,0.00946045,-0.0674438,0.0631714,0.0152588
45,2,0.0167847,0.0231934,0.0201416,0.0332642,0.0219727,0.0323486,0.0204468,0.146179,0.00579834,0.0109863,-0.0292969,0.0616455,0.0213623
45,3,0.0265503,0.0247192,0.0296021,0.0439453,0.0286865,-0.246887,0.0308228,-0.176086,0.0100708,0.0137329,-0.0158691,0.0265503,0.0262451
45,4,0.0238037,0.0286865,0.0253296,0.0512695,0.0286865,-0.324402,-0.00152588,-0.238037,0.0112915,-0.0515747,-0.015564,0.0466919,-0.0259399
46,0,0.0219727,0.0262451,0.010376,0.0335693,0.0170898,-0.140076,0.0152588,-0.268555,0.0357056,0.0186157,-0.0183105,0.0360107,0.0158691
46,1,0.0341797,-0.00579834,0.0292969,0.027771,0.027771,0.225525,0.0231934,-0.150146,0.0125122,0.0167847,-0.0241089,0.0271606,0.0274658
46,2,0.0250244,0.0222778,0.0219727,0.0234985,0.0158691,1.1972,0.015564,0.0286865,0.0292969,0.0250244,-0.0180054,0.0274658,0.0292969
46,3,0.00946045,0.0216675,0.0311279,0.038147,0.0259399,0.638123,0.0457764,0.537109,0.0146484,0.0115967,-0.015564,0.0265503,0.0231934
46,4,0.0201416,0.0256348,0.0289917,0.0454712,0.0335693,-0.629578,-0.00244141,0.547485,0.0115967,0.0183105,-0.0140381,0.0231934,0.0317383
47,0,0.0219727,0.0012207,0.0201416,0.0363159,0.0198364,-0.926514,-0.0317383,0.239258,0.0299072,0.012207,-0.0222778,0.0115967,0.0646973
47,1,0.0570679,0.0262451,0.0286865,0.0735474,0.0216675,1.51703,-0.027771,0.0518799,0.00518799,-0.00183105,-0.0244141,0.0143433,0.0460815
47,2,0.00732422,0.0222778,0.0271606,0.0424194,0.0234985,-0.644226,0.0314331,-0.164185,0.0192261,0.0320435,0,0.00671387,0.0323486
47,3,0.0149536,0.0341797,0.03479,0.0372314,-0.00976562,-1.33545,0.0543213,-0.327454,0.017395,0.027771,-0.0112915,0.00579834,0.00579834
47,4,0.0234985,0.012207,0.039978,0.0283813,0.0384521,-0.963745,0.00793457,-0.462341,-0.0335693,0.0265503,-0.0143433,0.0219727,0.0326538
48,0,0.010376,0.0543213,0.0332642,0.0302124,-0.0222778,-0.479736,0.0198364,-0.352783,0.0143433,0.0222778,-0.00915527,0.00610352,0.0201416
48,1,0.0180054,-0.00732422,0.0161743,-0.0012207,0.0216675,-0.119629,0.0387573,-0.437012,0.0100708,0.0164795,-0.00732422,0.00549316,0.015564
48,2,0.00946045,-0.0100708,0.0195312,0.0247192,0.0274658,-0.623779,0.0582886,-0.427856,0.0100708,0.00549316,-0.010376,0.00457764,0.0201416
48,3,0.0125122,-0.00915527,0.0143433,0.0247192,0.0299072,-0.881653,0.0299072,-0.343018,0.0311279,0.0198364,0.0219727,0.0241089,0.0186157
48,4,0.0128174,0.0112915,0.022583,0.0189209,0.0128174,0.195923,0.0125122,-0.358887,0.0286865,0.0323486,-0.00701904,0.0280762,0.0384521
49,0,-0.0357056,-0.00396729,0.0189209,0.0415039,0.0219727,0.322266,0.0259399,-0.318604,0.00549316,0.0238037,0.00457764,0.017395,0.0140381
49,1,-0.00183105,0.0167847,0.0201416,0.0177002,0.0289917,-0.319214,0.0271606,-0.36438,0.0430298,0.0259399,-0.0201416,0.0189209,0.0100708
49,2,0.0112915,0.0158691,0.00610352,0.0134277,0.0308228,-0.301208,0.0302124,-0.272522,0.0201416,0.0119019,-0.0192261,0.0131226,0.0326538
49,3,0.0119019,0.0198364,0.0271606,0.0238037,0.0405884,-0.15686,0.0231934,-0.292969,0.00915527,0.0344849,-0.0112915,0.0671387,0.0146484
49,4,0.0302124,0.0335693,0.0262451,0.0167847,0.0195312,0.25177,0.0335693,-0.432739,0.0167847,0.0244141,-0.0131226,0.00671387,0.0247192
50,0,0.0177002,0.027771,0.0189209,0.0326538,0.0115967,0.159912,0.0253296,-0.319824,0.0183105,-0.000915527,-0.0180054,0.0146484,0.00396729
50,1,0.0564575,0.017395,0.0241089,0.0622559,0.0177002,0.0366211,0.0219727,-0.125732,0.0247192,0.0192261,-0.0283813,0.0198364,0.0109863
50,2,0.0012207,0.0149536,0.0161743,0.032959,0.0195312,1.00647,0.0222778,-0.0186157,0.00762939,0.0201416,-0.0106812,0.0274658,0.0183105
50,3,0.0250244,0.0238037,0.0274658,0.0411987,0.0256348,0.877991,0.0308228,-0.113525,0.0253296,-0.00518799,-0.0140381,0.017395,0.00244141
50,4,0.0164795,0.0146484,0.0244141,0.0213623,0.0314331,0.249634,0.0265503,-0.159302,0.0244141,0.00213623,-0.0527954,0.0479126,0.017395
51,0,-0.00518799,0.067749,0.0299072,0.0149536,0.0531006,0.392761,0.0448608,-0.136719,0.015564,0.0186157,-0.0140381,0.0460815,0.0167847
51,1,0.0134277,0.0088501,0.0170898,0.0234985,0.0820923,0.306396,0.0238037,0.110168,0.0256348,0.0238037,-0.00976562,0.0460815,0.0271606
51,2,0.0109863,0.0561523,0.020752,0.0231934,0.0546265,0.0839233,0.0369263,-0.148315,0.00976562,0.00793457,-0.00396729,0.0643921,0.0158691
51,3,0.0378418,0.00488281,0.0143433,0.0427246,0.0421143,-0.00183105,0.0143433,-0.39032,0.0177002,-0.00823975,0.0210571,0.0210571,0.0112915
51,4,0.0180054,0.0112915,0.0268555,0.0250244,0.0326538,0.0942993,0.0317383,-0.78186,0.0152588,0.0427246,-0.0213623,-0.0460815,0.027771
52,0,0.0344849,0.0152588,0.0228882,0.0769043,0.012207,0.115662,0.0323486,0.205078,0.0289917,0.0128174,-0.0204468,-0.0396729,0.0189209
52,1,0.0604248,0.0131226,0.0201416,0.0308228,0.0338745,0.188904,0.00457764,0.441895,-0.020752,0.0183105,-0.0256348,-0.0311279,0.0299072
52,2,0.0292969,-0.038147,0.0311279,0.0189209,0.0332642,0.309753,0.0305176,0.458069,0.0299072,0.022583,-0.0283813,0.00915527,0.0204468
52,3,0.0088501,-0.0769043,0.0152588,0.0311279,0.0527954,0.307922,0.038147,0.622559,0.0222778,0.0219727,-0.0170898,0.0518799,0.0204468
52,4,0.0289917,-0.0335693,-0.0164795,0.032959,0.0183105,0.354309,0.00946045,0.733337,0.0375366,0.00671387,-0.0231934,0.0500488,0.010376
53,0,-0.0119019,0.00976562,0.0177002,0.0177002,0.0219727,0.379639,0.0183105,0.620422,0.0305176,0.00671387,-0.0402832,0.0140381,0.0320435
53,1,-0.00579834,0.0631714,0.0167847,0.0238037,0.0320435,0.296631,0.0402832,0.407104,0.0286865,0.0216675,-0.0326538,-0.00366211,0.0106812
53,2,0.00823975,0.0302124,0.0180054,-0.0158691,0.0222778,0.321045,0.0332642,0.242004,0.0238037,0.0323486,-0.0482178,-0.0012207,0.0213623
53,3,-0.0384521,0.0576782,0.0186157,0.0305176,0.0186157,0.459595,0.0393677,0.248108,0.0497437,0.00152588,-0.0256348,-0.00671387,0.00457764
53,4,0.00762939,0.0479126,0.00701904,0.0289917,0.0292969,0.309753,0.00427246,0.147705,0.0302124,0.0750732,-0.0140381,0.00976562,0.0344849
54,0,0.00640869,0.0271606,0.0335693,0.00671387,0.0189209,0.370483,0.015564,0.305786,0.0289917,0.0222778,-0.0213623,0.00152588,0.0238037
54,1,0.0115967,0.0112915,0.0271606,0.0170898,0.0119019,0.0769043,0.0372314,0.33844,-0.000305176,0.0250244,-0.0219727,0.0201416,0.0234985
54,2,0.00305176,0.0143433,0.00549316,0.0143433,0.0222778,0.159302,0.0308228,0.0650024,-0.00915527,0.010376,-0.00640869,0.0222778,0.00457764
54,3,0.00946045,-0.00244141,0.0228882,0.0231934,0.00915527,0.193481,0.0344849,0.229187,0.0161743,0.0115967,-0.0299072,0.03479,0.0817871
54,4,0.0402832,0.010376,0.0262451,0.0234985,0.0372314,-0.0286865,0.0283813,-0.0842285,0.0335693,0.0119019,-0.0180054,0.0238037,0.0445557
55,0,0.0314331,0.00335693,0.00366211,0.0314331,0.0140381,-0.00671387,0.0222778,0.248413,-0.0323486,0.00457764,0.00274658,0.043335,0.0112915
55,1,0.0598145,-0.0247192,0.0283813,0.0366211,0.0183105,-0.177612,0.0341797,-0.188293,0.0152588,-0.012207,-0.00854492,0.0552368,0.022583
55,2,0.0613403,-0.0198364,0.0631714,0.0305176,0.0125122,-0.479431,0.0350952,-0.556946,0.0335693,0.0198364,-0.0146484,0.00427246,0.00732422
55,3,0.0692749,0.00549316,0.0201416,0.0296021,0.0292969,-0.562744,0.0375366,-0.150452,0.0460815,-0.00335693,-0.0164795,-0.00854492,0.00457764
55,4,0.0576782,0.0149536,0.0460815,0.0396729,0.0180054,-0.490417,0.0375366,-0.0308228,0.0177002,0.00183105,-0.00610352,-0.107422,0.00854492
56,0,0.0308228,0.0219727,0.0216675,0.0332642,0.0531006,0.436096,0.0198364,-0.193787,0.0106812,0.0152588,-0.0167847,-0.245972,0.00610352
56,1,0.038147,0.0195312,0.00793457,0.0292969,0.0357056,-0.0973511,0.022583,-0.357361,0.032959,0.0183105,-0.0271606,-0.25238,0.010376
56,2,0.0424194,0.0222778,0.0131226,-0.0372314,0.0210571,-0.19989,0.0686646,-0.078125,0.0115967,0.000305176,-0.0390625,-0.237122,-0.0335693
56,3,-0.0100708,0.038147,0.0167847,0.0253296,0.0326538,-0.0799561,0.0311279,0.278625,0.0265503,0.00610352,-0.0143433,-0.0622559,0.0213623
56,4,-0.0115967,0.0308228,-0.0408936,0.0204468,0.0143433,0.368347,0.0454712,1.20911,0.0396729,0.0186157,-0.022583,0.0189209,-0.0238037
57,0,0.0216675,0.0390625,0.0216675,-0.0466919,0.0366211,0.575867,0.0299072,-0.336304,0.0238037,0.0418091,-0.0448608,0.038147,0.0146484
57,1,-0.0177002,0.0286865,0.0222778,0.0189209,0.0268555,0.253601,0.0262451,0.0384521,0.000915527,0.0106812,-0.0698853,0.0759888,0.0216675
57,2,-0.0476074,0.00701904,-0.0384521,-0.00396729,0.0210571,0.134277,0.039978,0.696106,0.0280762,0.0161743,-0.0616455,0.157166,0.0238037
57,3,-0.0238037,0.0372314,0.0280762,0.0149536,0.00793457,0.198059,0.0332642,-0.629883,0.0131226,0.00854492,-0.0524902,0.153809,0.00915527
57,4,-0.0253296,0.0198364,0.0167847,0.020752,0.0180054,0.232239,0.0320435,0.990601,0.0430298,0.0128174,-0.0439453,0.132141,0.0320435
58,0,-0.00793457,0.0213623,0.00274658,-0.00183105,0.0112915,0.215454,0.0265503,0.145874,0.017395,0.0210571,-0.0177002,0.0997925,0.0112915
58,1,-0.0787354,0.0354004,0.00915527,0.0341797,0.0228882,0.249634,0.0720215,-0.307922,0.00457764,-0.0375366,0.00305176,0.0741577,-0.0390625
58,2,0.00366211,0.00762939,-0.00335693,-0.0390625,0.0268555,0.151367,0.0350952,0.836792,0.0183105,0.0164795,-0.00518799,-0.0332642,0.0210571
58,3,-0.0302124,-0.00488281,0.00823975,-0.0302124,0.0088501,0.473633,0.00823975,1.06232,0.0112915,0.0204468,0.010376,-0.202026,0.0189209
58,4,-0.0314331,0.000610352,-0.00701904,0.0219727,0.00823975,0.498047,0.0411987,1.87408,0.0180054,0.0219727,-0.0457764,-0.244141,0.000305176
59,0,0.0244141,0.0180054,0.0109863,0.0213623,0.0152588,0.162048,0.0231934,1.25671,0.0183105,0.0299072,-0.0115967,-0.140686,0.00701904
59,1,0.0372314,0.0323486,0.00976562,0.0250244,0.00579834,0.349731,0.0320435,0.602417,-0.00335693,0.0894165,0.00244141,0.0323486,0.0521851
59,2,0.0387573,0.0195312,0.0106812,0.0286865,-0.0259399,0.739441,0.0344849,1.76422,0.00762939,0.0317383,-0.0344849,0.221863,0.00976562
59,3,0.0753784,0.0170898,0.0143433,0.043335,0.0137329,3.30597,0.0280762,0.889587,-0.00274658,0.0302124,-0.0140381,0.344543,0.0195312
59,4,-0.0415039,0.0161743,0.0125122,0.00488281,0.0201416,2.22626,0.0418091,0.429993,-0.017395,0.0332642,-0.0262451,0.195007,0.00793457
60,0,-0.0201416,0.0247192,0.0119019,0.0219727,0.0140381,3.19092,0.012207,0.986938,-0.0234985,0.0283813,-0.0454712,0.142212,0.00549316
60,1,-0.0128174,0.0384521,0.00579834,0.0283813,0.00976562,3.0777,0.0274658,0.0540161,0.0119019,0.0424194,-0.0268555,0.0946045,0.0244141
60,2,0.00335693,0.0192261,0.0115967,0.0134277,0.0219727,2.8656,0.022583,1.09741,0.000610352,0.0311279,-0.0469971,0.0878906,-0.000915527
60,3,0.0216675,-0.0485229,0.0115967,0.0350952,0.0808716,2.61139,0.0457764,1.21246,0.00671387,0.010376,-0.043335,0.0332642,-0.00701904
60,4,0.0177002,-0.00366211,-0.000610352,0.0128174,0.0231934,1.79108,0.0302124,0.0338745,0.0311279,0.0488281,-0.0494385,-0.00946045,0.00335693
61,0,0.0265503,0.00976562,0.0280762,0.0100708,0.0405884,0.155334,0.0375366,1.43677,0.00793457,0.0234985,-0.0427246,-0.022583,0.0134277
61,1,0.0149536,0.000610352,0.0128174,0.0250244,0.027771,2.24518,0.0372314,0.751648,0.0112915,0.0137329,-0.0320435,-0.0387573,-0.00305176
61,2,0.0134277,-0.00823975,0.00366211,0.00488281,0.0186157,-2.96204,0.0308228,0.624084,0.0415039,0.0335693,-0.0354004,0.010376,0.0198364
61,3,-0.0463867,0.00518799,0.00762939,0.0686646,0.0198364,-3.18512,-0.00976562,-0.377502,0.0149536,0.0515747,-0.0396729,0.0500488,0.0204468
61,4,0.0210571,0.0241089,-0.0259399,0.032959,0.0354004,-3.19092,0.0262451,-1.01959,0.00488281,0.0195312,-0.0378418,0.0350952,0.0219727
62,0,0.00671387,0.0213623,-0.00213623,0.0259399,0.0271606,-3.12439,-0.0189209,0.371094,0.032959,0.039978,-0.0457764,0.0262451,0.020752
62,1,0.0375366,0.0662231,-0.0100708,0.017395,0.00244141,-2.99927,0.0241089,0.455322,0.03479,0.0259399,-0.0167847,0.0143433,0.015564
62,2,0.0509644,0.022583,0.00823975,0.0140381,0.0790405,-2.89886,0.0378418,1.07391,0.0125122,0.0393677,-0.0326538,0.0628662,-0.010376
62,3,0.0485229,-0.0244141,-0.0134277,0.0195312,0.0189209,-2.80212,0.0222778,0.426636,0.0201416,0.0369263,-0.0296021,0.093689,0.00366211
62,4,0.0384521,0.0393677,0.0189209,0.0119019,0.022583,-2.69562,0.0378418,-2.66296,-0.020752,0.0204468,-0.0244141,-0.00244141,0.00488281
63,0,0.0131226,0.00915527,0.00915527,0.0256348,0.0323486,-2.59796,0.0366211,0.770874,-0.0372314,0.0256348,0.0128174,-0.171204,-0.00732422
63,1,0.0250244,0.00915527,-0.0457764,0.0216675,0.00793457,-2.56317,0.0296021,-1.28876,-0.00396729,0.0253296,0.00640869,-0.135803,0.000305176
63,2,0.0552368,0.0268555,0.0177002,0.015564,0.0299072,-2.40692,0.0247192,0.335083,0.0164795,0.0213623,-0.000915527,-0.0485229,0.00427246
63,3,0.0570679,0.010376,0.0192261,0.0250244,0.0167847,-2.341,0.0372314,-0.305786,0.0161743,0.0231934,-0.00183105,0.0177002,0.0561523
63,4,0.0250244,-0.0552368,0.0140381,0.0241089,0.0405884,-2.26654,0.0195312,0.821533,-0.000610352,0.0134277,-0.00305176,0.0674438,0.00457764
64,0,0.00854492,-0.00640869,0.0128174,0.0152588,0.0234985,-2.17499,0.0323486,1.0202,0.015564,0.0375366,-0.000610352,0.115051,0.0109863
64,1,-0.00518799,0.0164795,0.00701904,0.0119019,0.0112915,-2.08801,0.0244141,0.493469,0.0286865,0.0161743,0.0088501,0.0567627,0.000305176
64,2,0.0430298,0.00915527,0.00488281,0.0106812,0.0170898,-0.678711,0.0198364,-1.27777,0.0314331,0.0161743,-0.00274658,0.0372314,0.00732422
64,3,-0.0100708,0.0250244,0.012207,0.0131226,0.00946045,-1.99585,0.0262451,0.444946,0.0363159,0.0265503,-0.0485229,0.0378418,0.0109863
64,4,-0.00457764,0.0112915,0.00976562,0.0149536,0.0189209,-1.94763,0.0265503,1.12183,0.050354,0.0128174,-0.0161743,0.00305176,0.0167847
65,0,-0.0274658,0.00579834,-0.00701904,0.012207,0.0256348,-1.90399,0.0335693,1.42517,0.0534058,0.0311279,-0.0308228,0.0265503,0.0137329
65,1,-0.00244141,0.0195312,0.00396729,0.020752,0.0198364,-1.8161,0.0146484,0.492859,0.101318,0.0350952,-0.0491333,-0.0198364,0.0280762
65,2,-0.000305176,0.0204468,0.0210571,0.0100708,0.0146484,-1.75232,0.0231934,0.150452,0.0564575,0.057373,-0.0506592,0.0195312,0.0509644
65,3,-0.00732422,0.0186157,0.0137329,0.00701904,0.0158691,-1.67725,0.0164795,0.0762939,0.0500488,0.0335693,-0.045166,0.00946045,0.0234985
65,4,-0.00213623,-0.0231934,0.0149536,0.00854492,0.0881958,0.105591,0.0271606,0.072937,0.0506592,0.0186157,-0.043335,-0.00396729,0.020752
66,0,0.0756836,0.0259399,0.00518799,0.0115967,0.0177002,0.722656,0.0183105,0.598755,0.0463867,0.0265503,-0.0344849,-0.00213623,0.0146484
66,1,0.0241089,0.0540161,0.015564,0.0146484,-0.0167847,1.60126,0.0222778,-0.900269,0.0341797,0.0323486,-0.0341797,-0.00366211,0.0146484
66,2,0.0216675,0.03479,0.00671387,0.00152588,0.0250244,1.89117,0.0289917,-0.634766,0.0445557,0.0253296,-0.0164795,0.0012207,0.0524902
66,3,0.0402832,0.0143433,-0.0012207,0.00915527,0.0244141,2.89642,0.00610352,-0.478516,0.072937,0.177307,-0.0115967,-0.000915527,0.0305176
66,4,0.0201416,0.0256348,0.0164795,-0.0137329,0.0167847,0.11322,0.0140381,-0.38147,0.0631714,0.0863647,-0.00671387,0.00396729,0.0280762
67,0,0.0500488,0.0259399,0.00305176,-0.00915527,-0.000305176,3.32764,0.0326538,-0.523682,0.0424194,-0.0106812,0.00366211,0.0167847,0.0250244
67,1,0.0369263,0.0415039,0.015564,0.00396729,0.0152588,3.29193,0.0268555,-0.612793,0.0592041,-0.0213623,0.0164795,0.0415039,-0.0393677
67,2,0.012207,0.0408936,0.0213623,-0.022583,0.022583,3.29742,-0.0170898,-1.07727,0.0250244,-0.0445557,0.0183105,0.0332642,0.00518799
67,3,0.0350952,0.0488281,0.0204468,0.0100708,0.0250244,3.30963,0.0128174,-1.15479,0.0921631,0.0137329,-0.0112915,0.0698853,0.0228882
67,4,0.00274658,0.0210571,0.0320435,0.00915527,0.0198364,3.29132,0.00335693,-0.994263,0.0369263,0.0317383,0.00610352,0.0579834,0.0390625
68,0,0.0308228,0.0164795,0.0158691,0.0170898,0.0161743,3.27667,0.0234985,-1.49353,0.0296021,0.0012207,-0.00244141,0.0772095,0.0140381
68,1,0.0234985,0.000305176,0.022583,0.0216675,0.0274658,3.30017,0.0152588,-1.55487,0.022583,0.00396729,-0.00366211,0.0442505,0.0164795
68,2,0.0378418,-0.0317383,0.0314331,0.00335693,0.0244141,2.85767,0.0271606,-0.890198,0.0219727,0.00854492,0.00183105,0.0567627,-0.0164795
68,3,0.038147,-0.0146484,0.0341797,0.0241089,0.0268555,3.1781,0.0167847,-0.95459,0.0454712,0.0152588,0.00518799,0.0369263,0.00732422
68,4,0.0442505,-0.0204468,0.017395,0.0137329,0.0344849,3.1308,0.0177002,-1.11176,-0.00335693,0.0286865,-0.0143433,0.0286865,0.00701904
69,0,0.0268555,0.00427246,0.0164795,-0.00457764,0.0167847,3.06305,0.0460815,-0.478516,0.0112915,0.0289917,-0.012207,-0.0140381,0.0167847
69,1,0.0256348,0.0585938,0.0140381,0.010376,0.0213623,2.97272,0.0204468,-0.504456,0.0256348,0.0134277,-0.00976562,-0.0134277,0.00793457
69,2,0.0231934,0.0558472,0.0170898,0.0274658,0.00946045,2.28851,0.0759888,-0.229492,0.00854492,-0.0112915,-0.0192261,-0.0463867,0.00640869
69,3,0.0247192,0.0363159,0.00915527,0.0167847,0.0219727,2.86102,0.00396729,-0.102539,0.0271606,0.0265503,0.0244141,-0.0445557,0.0317383
69,4,0.022583,0.0320435,0.0231934,0.017395,0.0216675,2.79663,0.0177002,0.450745,0.0125122,0.017395,-0.0546265,-0.0222778,0.00946045
70,0,-0.000915527,0.0109863,0.0216675,-0.0012207,0.0262451,-0.280457,0.0180054,1.44623,0.0534058,0.0216675,-0.0454712,-0.0424194,0.0088501
70,1,0.0350952,0.0363159,0.0244141,0.000610352,0.0286865,-3.1778,-0.00488281,1.27838,0.0366211,0.020752,-0.0494385,0.0518799,0.0491333
70,2,0.0332642,0.072937,-0.03479,0.00671387,0.0332642,-3.19183,0.0311279,2.38068,0.0402832,0.00579834,-0.0604248,0.00213623,0.0637817
70,3,0.0521851,0.0592041,-0.00274658,-0.0012207,0.0183105,2.87415,0.00152588,1.89667,0.0323486,0.0259399,-0.0442505,0.0106812,0.0210571
70,4,0.0393677,0.0369263,0.0265503,-0.0134277,0.020752,2.80243,0.00671387,0.090332,0.045166,0.0308228,-0.0521851,0.0146484,0.0372314
71,0,0.0427246,0.00579834,0.0305176,-0.0228882,0.022583,2.70172,0.0204468,0.209961,0.0292969,0.015564,-0.0915527,0.0131226,0.0204468
71,1,0.0244141,0.00701904,0.00976562,-0.0219727,0.0473022,2.27753,0.00274658,0.447083,0.0588989,0.0210571,-0.0436401,0.0106812,0.0256348
71,2,0.0231934,-0.0158691,0.0183105,-0.0201416,0.0146484,1.70258,-0.0183105,-1.36047,0.0494385,0.0195312,-0.0460815,0.0170898,0.0268555
71,3,0.0350952,0.0149536,0.0238037,-0.0152588,0.00701904,0.492554,0.0253296,-1.026,0.0253296,0.0192261,-0.0463867,0.0317383,0.027771
71,4,0.038147,0.0265503,0.0286865,0.00701904,0.0137329,1.03333,-0.0289917,-2.47437,0.0534058,0.0500488,-0.0500488,0.0384521,0.043335
72,0,0.0280762,0.00152588,0.0186157,0.00915527,-0.000305176,-0.137939,0.0140381,-1.23718,0.0692749,0.0265503,-0.0134277,0.0323486,0.00152588
72,1,0.0595093,-0.0164795,0.032959,0.00976562,-0.0189209,0.3302,-0.0012207,-1.01196,0.0256348,0.0335693,-0.0241089,0.0314331,0.0137329
72,2,0.0299072,-0.0259399,0.0354004,0.015564,-0.0109863,0.183411,0.0238037,-0.656433,0.0302124,0.0335693,-0.0140381,0.0280762,0.0186157
72,3,0.0427246,-0.0317383,0.0326538,0.0424194,-0.00854492,2.57599,0.00976562,-1.29761,0.0430298,0.0253296,-0.00946045,0.0393677,0.0283813
72,4,0.0253296,-0.0335693,0.0177002,0.0360107,0.00610352,2.54486,0.0128174,-2.68372,0.0323486,0.0598145,-0.0259399,0.0494385,0.0360107
73,0,0.0430298,-0.0366211,0.038147,0.0430298,0.0314331,1.7981,0.00762939,2.25403,0.0170898,0.015564,-0.0234985,0.038147,0.0604248
73,1,0.00793457,0.0134277,0.0283813,0.0402832,0.0317383,2.38342,0.0192261,0.726929,-0.0100708,0.0326538,-0.0192261,0.0372314,0.0302124
73,2,0.0357056,-0.00274658,0.0112915,0.0363159,-0.00183105,2.23755,0.0250244,2.06116,-0.015564,0.03479,-0.0180054,0.0427246,0.0567627
73,3,0.0305176,-0.0689697,0.0299072,0.0436401,0.0152588,0.632629,0.0167847,1.81915,-0.00549316,0.0326538,-0.0140381,0.0439453,0.0268555
73,4,0.0201416,-0.0939941,0.0216675,0.0354004,0.00549316,2.17438,0.0286865,2.78076,0.0259399,0.017395,-0.0357056,0.0372314,0.0256348
74,0,0.020752,-0.105896,0.032959,0.0262451,0.0308228,1.62384,0.0283813,2.73743,-0.0204468,0.0210571,-0.0479126,0.0323486,0.0308228
74,1,0.0088501,0.00671387,0.0308228,0.0332642,0,-0.682373,0.0253296,2.62848,0.0125122,0.0494385,-0.06073,0.0537109,0.0515747
74,2,0.0372314,0.00244141,0.0308228,0.0311279,0.00915527,1.79504,0.0192261,0.684204,-0.00915527,0.00335693,-0.0634766,0.0274658,0.0222778
74,3,0.0460815,0.0305176,0.050354,0.020752,-0.00793457,1.073,0.0152588,2.14722,0.000610352,0.0177002,-0.0521851,0.0402832,0.0250244
74,4,0.0372314,0.072937,0.0137329,0.032959,-0.00152588,-1.90765,0.0109863,1.85303,0.022583,0.0131226,-0.0283813,0.0390625,0.0491333
75,0,0.0234985,0.06073,0.010376,0.0241089,0.0164795,-3.20831,0.0177002,2.07245,0.0149536,0.0326538,-0.0219727,0.038147,0.0366211
75,1,0.0463867,0.0894165,0.0125122,0.020752,0.0100708,-3.19061,0.0161743,-2.48596,0.0247192,0.0308228,-0.0146484,-0.012207,0.0125122
75,2,0.0479126,0.140991,0.032959,0.0369263,0.0192261,-1.93115,0.0180054,2.33551,0.0161743,0.0387573,-0.0222778,0.0619507,0.0384521
75,3,0.0415039,0.200806,0.0247192,0.0177002,0.0125122,0.835266,0.00396729,-1.83655,0.00366211,0.0299072,-0.0338745,-0.00762939,0.0308228
75,4,0.0363159,0.194092,0.0170898,0.0158691,0.00976562,-2.04254,0.0247192,0.151978,0.0305176,0.0387573,-0.0326538,0.03479,0.0283813
76,0,0.0320435,0.0976562,0.00946045,0.0125122,-0.027771,-2.19421,0.0170898,-1.05682,0.0137329,0.0317383,-0.0222778,0.0515747,0.0210571
76,1,0.039978,0.0354004,-0.0170898,0.0720215,0.0198364,-0.379028,0.0308228,1.97662,0.0561523,0.0262451,-0.027771,0.0372314,0.0216675
76,2,0.03479,0.0143433,-0.0158691,0.0241089,0.0143433,-2.96844,0.017395,1.9696,0.055542,0.015564,-0.0146484,0.0387573,0.0234985
76,3,0.0338745,-0.00213623,-0.0259399,0.0588989,0.0219727,-2.52258,0.0411987,2.24792,0.0534058,0.0405884,-0.00579834,0.0088501,0.0265503
76,4,0.00762939,0.0286865,0.0128174,0.00305176,0.0146484,-2.29919,0.00946045,2.34833,0.0628662,0.0299072,-0.010376,0.00488281,0.0488281
77,0,0.0387573,0.0167847,0.017395,-0.00427246,0.0604248,2.27722,0.0146484,-0.356445,0.0482178,0.0311279,-0.020752,0.0112915,0.0430298
77,1,0.0143433,0.00396729,0.0442505,0.0238037,-0.00946045,-3.18451,0.0350952,-1.78528,0.0521851,0.0326538,-0.0527954,0.0204468,0.0289917
77,2,0.0198364,0.0286865,0.0186157,0.0177002,0.0271606,-3.17993,0.0231934,-0.760193,0.0460815,0.0262451,-0.0454712,0.00640869,0.0299072
77,3,0.0222778,0.0283813,0.022583,0.00854492,0.0292969,-1.14807,0.0158691,2.26379,0.038147,0.0326538,-0.0100708,0.0390625,0.0405884
77,4,0.0265503,0.0341797,0.0289917,0.0241089,0.00335693,1.35162,0.000915527,2.20245,0.045166,0.0228882,-0.0448608,0.0305176,0.0308228
78,0,0.0354004,0.0323486,0.0192261,0.0238037,0.017395,-1.64886,0.039978,2.12006,0.0143433,0.0283813,-0.0335693,0.03479,0.0234985
78,1,0.0341797,0,0.050354,0.012207,0.00335693,1.31897,0.00244141,1.9516,0.0723267,0.0289917,-0.0408936,0.0369263,0.0271606
78,2,0.0296021,-0.0305176,0.0189209,0.0161743,0.0210571,-3.09143,-0.00579834,1.67114,0.0476074,0.0268555,-0.0299072,0.0241089,0.0402832
78,3,0.0222778,-0.0234985,0.0143433,0.0247192,0.0262451,-1.82556,0.0219727,-0.776367,0.0134277,0.022583,-0.0119019,0.0543213,0.0424194
78,4,0.0445557,-0.0344849,0.027771,0.0131226,0.0247192,-1.77032,0.0125122,1.95557,0.0561523,0.03479,-0.0408936,0.0549316,0.0488281
79,0,0.0314331,-0.0668335,0.0256348,-0.00701904,0.010376,-2.78656,0.00762939,1.89667,0.0253296,0.0299072,-0.0280762,0.03479,0.140686
79,1,0.0238037,-0.00335693,0.0375366,0.0262451,0.0143433,-3.0838,0.0216675,1.57318,0.0131226,0.0152588,-0.0177002,0.0448608,0.140381
79,2,0.0402832,0.0265503,0.0491333,0.0228882,0.0201416,-2.99011,0.038147,-0.869751,0.015564,-0.0131226,-0.000610352,0.0268555,0.0378418
79,3,0.0350952,0.0601196,0.0405884,0.0494385,-0.00610352,-2.17651,0.0305176,-1.4032,0.0109863,0.017395,-0.00183105,0.0466919,0.072937
79,4,0.0250244,0.107117,0.0222778,0.0158691,0.0201416,-2.79541,0.0234985,-3.19763,0.0360107,0.0494385,-0.0213623,0.0360107,0.0241089
80,0,0.0164795,0.0823975,0.043335,0.0134277,0.0256348,-2.68555,0.0180054,-3.19824,0.0323486,0.0274658,-0.0131226,0.0360107,0.0656128
80,1,0.0344849,0.0823975,-0.00335693,0.0137329,0.0262451,-0.296326,-0.0012207,-3.2196,0.00366211,-0.00396729,-0.0390625,0.032959,0.111694
80,2,0.0271606,0.0875854,0.0183105,0.0250244,0.0350952,3.19031,0.0219727,-3.19519,0.0372314,0.0268555,-0.0537109,0.071106,0.0616455
80,3,0.0134277,0.0775146,0.0262451,0.0241089,0.015564,2.99164,0.0262451,-3.18726,0.0415039,0.0326538,-0.0759888,0.0204468,0.0286865
80,4,0.0201416,0.0518799,0.0137329,0.027771,0.0186157,3.30353,0.0366211,-3.16559,0.0506592,-0.00488281,-0.0793457,0.0167847,0.0430298
81,0,0.0234985,0.0930786,0.0280762,0.0088501,0.0231934,3.30322,0.0198364,-3.17505,0.0720215,0.0262451,-0.062561,0.0128174,0.0689697
81,1,0.00762939,0.0784302,-0.0222778,0.0167847,0.0119019,3.2251,0.0112915,-3.2019,0.045166,0.0308228,-0.0506592,0.0314331,0.244446
81,2,0.0280762,0.0552368,0.0283813,0.0265503,0.020752,3.10852,0.0305176,-3.19946,0.0350952,0.00976562,-0.0289917,0.0442505,0.339355
81,3,0.0219727,0.0540161,0.078125,0.00854492,0.0164795,3.03741,0.00823975,-3.13049,-0.0177002,0.0231934,-0.0219727,0.0012207,0.318298
81,4,0.0253296,0.0476074,0.015564,0.0204468,0.0247192,3.00781,0.017395,-3.06305,0.0558472,0.0210571,-0.0332642,0.043335,0.317383
82,0,0.0665283,0.0390625,0.0323486,0.032959,0.0213623,2.90833,0.0186157,-2.98737,0.0448608,0.0186157,-0.022583,0.0424194,0.293579
82,1,0.0268555,0.00946045,0.0186157,0.0317383,0.0396729,-0.327148,0.0231934,-2.91931,0.0442505,0.0234985,-0.017395,0.0302124,0.285339
82,2,-0.0146484,0.0558472,0.0357056,0.0964355,0.0213623,-3.17993,-0.0457764,-2.86072,0.0344849,0.0445557,-0.0140381,0.0137329,0.312805
82,3,0.0201416,0.0512695,0.0326538,0.0299072,0.0146484,-3.17505,0.0195312,-2.78778,0.0360107,-0.0115967,-0.00946045,0.0128174,0.281982
82,4,0.0238037,-0.00915527,0.0454712,0.0219727,0.0338745,-3.12988,0.0149536,-2.73438,0.00518799,0.0296021,-0.0128174,0.0372314,-0.107727
83,0,-0.00305176,-0.0198364,0.0354004,0.0421143,0.0164795,-3.06183,-0.0189209,-2.69226,0.00762939,0.0610352,0.0109863,0.0146484,-0.107727
83,1,0.0201416,-0.00732422,0.0308228,0.0164795,0.0125122,0.124207,0.0198364,-2.61047,0.00549316,0.0280762,0.00976562,0.017395,-0.131226
83,2,0.0189209,-0.00610352,0.00183105,0.0164795,0.0216675,-3.16467,0.000305176,-2.56012,0.0268555,0.03479,0.00671387,0.022583,-0.12207
83,3,0.0424194,-0.00244141,0.0442505,0.0411987,0.0372314,0.775452,0.0183105,-2.11395,0.015564,0.0222778,-0.0253296,0.032959,-0.114746
83,4,0.0308228,-0.0158691,0.045166,0.027771,0.0286865,3.22815,0.0152588,-0.81665,-0.00366211,0.0296021,0,0.0317383,-0.105286
84,0,0.0180054,-0.0701904,0.0341797,0.0357056,0.0256348,2.76886,0.0134277,-2.4231,-0.012207,0.0149536,-0.0012207,0.00946045,-0.0933838
84,1,0.0537109,-0.038147,0.0479126,-0.00793457,0.0317383,-3.17963,-0.0366211,-2.41425,-0.00305176,-0.0247192,0.0137329,0.0183105,-0.0714111
84,2,0.0320435,-0.00274658,0.0408936,0.0631714,0.045166,-3.05206,0.0531006,-2.3584,-0.0161743,0.0106812,-0.0119019,0.0219727,-0.106201
84,3,0.0204468,0.0592041,0.0430298,0.0384521,0.00762939,-2.94312,0.0183105,-2.31232,-0.0152588,-0.0210571,-0.0228882,0.0274658,-0.0906372
84,4,0.022583,0.0442505,0.0469971,0.0274658,0.0302124,2.95441,0.0222778,-2.24518,0.00183105,-0.00213623,-0.0540161,0.0131226,-0.0741577
85,0,0.0354004,-0.0408936,0.0375366,0.0375366,0.0241089,-1.0553,0.0177002,-2.20032,0.010376,0.00915527,-0.0326538,-0.000915527,-0.0775146
85,1,0.0341797,-0.128174,0.0402832,0.0405884,0.0292969,-2.8595,0.00793457,-2.14569,0.00305176,0.0241089,-0.0479126,0.0308228,-0.123291
85,2,0.00274658,-0.0982666,0.0338745,0.0405884,0.0445557,3.30231,0.010376,-2.10358,0.0106812,-0.00396729,-0.0408936,0.0350952,-0.0897217
85,3,0.0509644,-0.072937,0.0460815,0.0985718,0.0479126,3.30994,0.0369263,0.979919,-0.00732422,0.0213623,-0.0427246,0.0357056,-0.0228882
85,4,-0.00976562,-0.0506592,0.0595093,0.0210571,0.0827026,-2.89276,0.043335,-1.60217,-0.000610352,0.0799561,-0.0515747,0.0100708,0.0405884
86,0,0.015564,-0.0546265,0.0463867,0.0390625,0.0106812,-2.81433,0.0158691,-1.65771,0.00610352,0.0210571,-0.0631714,0.0216675,0.00701904
86,1,0.0167847,-0.0436401,0.0558472,0.0360107,0.0344849,-2.70355,0.0219727,2.41028,0.0408936,0.0283813,-0.0653076,-0.0335693,0.000915527
86,2,0.00335693,-0.0479126,-0.0106812,0.0494385,0.0088501,3.33801,0.0204468,0.828247,0.0137329,0.00640869,-0.0588989,0.0302124,-0.00274658
86,3,0.00946045,-0.0582886,0.0436401,0.0360107,0.0289917,0.0152588,0.0143433,-1.80359,0.00305176,0.0244141,-0.050354,0.012207,0.00396729
86,4,0.0115967,-0.0454712,0.0411987,0.0387573,0.00701904,2.70172,0.0161743,-1.86707,0.00427246,0.0186157,-0.0482178,0.0283813,0.0216675
87,0,0.0360107,0.279541,0.0308228,0.057373,0.0198364,-0.979919,0.0445557,-1.75964,0.0170898,0.00488281,-0.0454712,0.0323486,-0.00915527
87,1,0.0375366,0.206299,0,0.0363159,-0.0482178,1.60675,0.00793457,0.279541,0.0241089,0.0250244,-0.0390625,0.0106812,0.00305176
87,2,0.0164795,0.125732,0.0106812,0.0213623,0.0219727,-0.61554,0.0219727,-0.293884,0.0213623,0.0228882,-0.0286865,0.0109863,0.00976562
87,3,0.0689697,0.0796509,0.012207,-0.00518799,0.0323486,-2.74261,0.0430298,0.327454,0.0256348,-0.00427246,-0.0326538,-0.00396729,-0.00793457
87,4,0.00518799,0.0375366,-0.0231934,0.0265503,0.0250244,-2.72156,0.0204468,-0.347595,0.0161743,0.032959,0.00915527,-0.000915527,0.0164795
88,0,0.00640869,0.0540161,-0.0515747,0.0115967,0.0268555,-2.55463,0.0228882,3.28796,0.010376,0.0469971,0.0247192,-0.000915527,0.0378418
88,1,-0.00701904,0.0439453,-0.0860596,0.0418091,0.0317383,2.42523,0.0241089,3.30566,0.0274658,0.00366211,0.0137329,-0.00488281,0.0158691
88,2,0.0125122,0.150146,-0.0247192,0.0320435,0.0610352,-2.46552,-0.00305176,3.24799,0.0262451,0.0128174,0.0244141,-0.012207,0.00152588
88,3,-0.00366211,0.134888,0.00549316,0.0390625,0.0650024,-2.40967,0.0164795,3.30109,0.00854492,-0.00213623,0.0210571,0.0100708,0.00152588
88,4,0.0106812,0.136719,0.000915527,0.0296021,0.0570679,-2.33093,0.012207,2.34131,0.00396729,0.0146484,0.0286865,0.0231934,0.0128174
89,0,0.00854492,0.0906372,0.0161743,0.0180054,0.0408936,-2.22626,0.0253296,-1.70166,0.0216675,0.00305176,0.0201416,0.0222778,0.00457764
89,1,0.00152588,0.0790405,0.0164795,0.0680542,0.0360107,3.32275,0.0415039,-2.38739,0.039978,-0.00152588,0.0152588,0.043335,0.00488281
89,2,0.0109863,0.0808716,0.0222778,0.0274658,0.0436401,3.29651,0.0250244,-2.09595,0.0106812,0.00946045,0.0189209,0.0210571,-0.00366211
89,3,0.0137329,0.0640869,0.0280762,0.0271606,0.0253296,3.30811,0.0149536,3.15094,-0.0323486,0.0177002,0.000610352,0.0109863,-0.00488281
89,4,-0.00732422,0.115051,0.0253296,0.0283813,0.0775146,3.29987,0.0463867,-1.40961,0.00946045,0.0335693,-0.0149536,0.0265503,0.00549316
90,0,0.0213623,0.0619507,0.0323486,0.039978,0.0238037,3.29865,0.0222778,-2.26349,-0.00671387,0.0137329,-0.0234985,0.0308228,0.0128174
90,1,-0.0338745,0.0463867,0.0177002,0.0466919,0.0131226,3.30536,0.0292969,3.30139,-0.00244141,0.0106812,0.0244141,0.0112915,0.00366211
90,2,0.0210571,0.0210571,0.0247192,0.0500488,0.00427246,3.2428,0.0457764,3.30292,-0.010376,0.0604248,-0.0283813,0.0204468,0.00610352
90,3,-0.0405884,0.0473022,0.0262451,0.0799561,0.0192261,3.15308,0.0241089,1.2674,0.00152588,0.010376,-0.0262451,0.0314331,-0.00213623
90,4,0.012207,0.0305176,0.032959,0.0561523,0.0170898,3.09113,0.0265503,3.29956,-0.00213623,0.00732422,-0.0393677,0.00305176,-0.00213623
91,0,0.0271606,0.0241089,0.0222778,0.0534058,0.0192261,3.02124,0.0247192,3.31635,-0.017395,-0.00213623,-0.0234985,0.015564,0.0305176
91,1,0.0161743,0.0195312,0.0360107,0.0415039,0.0421143,2.11426,0.0302124,3.20343,-0.00946045,0.00579834,-0.0738525,0.0195312,0.0262451
91,2,0.0115967,-0.000305176,-0.00946045,0.0201416,0.0125122,2.30377,0.0360107,-2.36115,-0.00305176,0.0149536,-0.0723267,0.0177002,0.0323486
91,3,0.015564,-0.00854492,0.015564,0.0302124,0.0286865,2.19391,0.0384521,3.30841,-0.00610352,0.0192261,-0.0570679,0.0161743,0.0579834
91,4,0.0250244,-0.00762939,0.0268555,0.0430298,-0.0222778,0.231018,0.0268555,3.32886,-0.0100708,0.00579834,-0.0369263,0.0115967,0.0149536
92,0,0.0253296,-0.022583,0.0479126,0.0878906,0.0231934,-1.67694,-0.00946045,1.7749,0.0134277,0.0198364,-0.0283813,0.00640869,0.0112915
92,1,0.0192261,-0.0158691,0.0289917,0.0238037,0.0335693,-3.1897,0.0183105,-2.22473,0.00701904,0.0177002,-0.00579834,0.0164795,0.0262451
92,2,0.0357056,-0.017395,0.0390625,0.0210571,0.0234985,-3.17108,0.0112915,-2.77985,0.0201416,0.0363159,-0.00762939,0.015564,-0.022583
92,3,0.0210571,-0.00823975,0.0476074,-0.0177002,0.0506592,-3.172,0.0170898,-2.6944,0.0222778,0.0177002,-0.00579834,0.0216675,0.0262451
92,4,0.00915527,-0.0106812,0.0161743,0.0323486,0.0375366,-3.22449,0.0204468,-2.59003,0.0531006,0.0204468,0.015564,0.000915527,0.0311279
93,0,0.015564,-0.0131226,0.0421143,0.0262451,0.0201416,-3.04382,0.0134277,-2.48108,0.0360107,0.0213623,0.0357056,0.00976562,-0.00457764
93,1,-0.00305176,0.0201416,0.0241089,0.0442505,0.0119019,3.20984,0.0192261,-2.40448,0.0469971,-0.0158691,0.0320435,0.0088501,0.0204468
93,2,0.0741577,0.0299072,0.0320435,0.0915527,0.0384521,-1.80847,0.0753784,-2.32208,0.0152588,0.0390625,0.00610352,0.00396729,0.0332642
93,3,0.00305176,0.0119019,0.038147,0.0167847,0.0152588,-3.05969,0.0228882,-2.23785,0.0439453,0.0152588,0.0488281,0.00946045,0.0112915
93,4,0.0189209,0.0128174,0.0189209,0.0195312,0.0210571,-2.93945,0.0268555,-2.16431,0.0390625,0.00305176,0.00518799,0.00976562,0.010376
94,0,0.0125122,0.0146484,0.0604248,0.0332642,0.0274658,-2.83844,0.0222778,-2.08313,0.0454712,0.0134277,0,0.00518799,-0.00946045
94,1,0.00762939,0.0152588,0.0109863,0.00854492,0.0350952,-2.74475,0.0238037,-2.00134,0.0411987,0.00915527,-0.0259399,0.00732422,0.00671387
94,2,0.0256348,0.0662231,-0.00915527,0.022583,0.0134277,-2.63336,0.0372314,-1.85547,0.0332642,0.0189209,-0.012207,0.00396729,0.00793457
94,3,0.0231934,0.010376,0.0262451,0.0164795,0.043335,-2.5293,0.0158691,-1.88873,0.0314331,0.010376,-0.0112915,0.0088501,0.0177002
94,4,0.00976562,0.043335,0.010376,0.0366211,0.0149536,-2.44904,0.0317383,-1.77704,0.0250244,-0.00915527,-0.00732422,-0.0012207,0.0192261
95,0,0.015564,0.00793457,0.0183105,0.0314331,0.022583,-2.36084,0.0140381,-1.75232,0.0137329,-0.00976562,-0.00762939,0.0115967,0.010376
95,1,0.0112915,-0.0354004,0.0344849,0.0506592,0.0289917,-2.27539,0.0323486,-0.6604,-0.00366211,0.0143433,0.0109863,-0.00244141,0.0152588
95,2,0.00183105,0.00396729,-0.00213623,0.0460815,0.0234985,-2.20123,0.0238037,1.83411,0.0167847,0.0109863,-0.0186157,0.00793457,0.0592041
95,3,0.0558472,0.0271606,0.0247192,-0.00976562,0.0250244,-2.10388,0.0262451,3.31879,0,0.00396729,-0.0177002,0.0186157,0.00640869
95,4,0.0613403,-0.0335693,0.0201416,-0.00549316,0.0231934,-2.0636,0.0860596,3.31146,-0.000915527,0.0158691,0.0323486,0.0219727,-0.012207
96,0,0.0430298,-0.00640869,0.0204468,0.0354004,0.00305176,-1.97235,0.0125122,1.7749,-0.0143433,-0.000305176,-0.022583,-0.0219727,0.0012207
96,1,0.0149536,-0.0228882,0.027771,0.0402832,0.0170898,-1.91742,0.0299072,0.126343,-0.00427246,-0.00152588,-0.00793457,0.00152588,-0.00976562
96,2,0.00976562,-0.00823975,0.0204468,0.0140381,-0.0180054,1.94519,0.0283813,0.141602,-0.0152588,-0.000305176,-0.0216675,0.0012207,-0.0106812
96,3,0.0253296,-0.0088501,0.0241089,0.0299072,0.0271606,2.61566,0.0152588,0.603638,-0.00793457,-0.00518799,-0.0769043,0.0100708,0.00213623
96,4,0.0204468,-0.0201416,0.0405884,0.0366211,0.0204468,-0.683594,0.0369263,-0.446472,-0.0247192,-0.0134277,-0.0320435,0.0158691,0.0119019
97,0,-0.0100708,-0.0170898,0.0241089,0.0839233,0.0299072,0.252075,0.0234985,-0.0384521,-0.00213623,-0.00274658,-0.055542,0.0109863,-0.000610352
97,1,0.0234985,-0.000915527,0.0131226,0.0662231,0.0198364,3.31146,0.0427246,-0.785522,0.0012207,-0.0106812,-0.0408936,0.0100708,0.0210571
97,2,0.0210571,0.00976562,0.0213623,0.0228882,0.0405884,3.30139,0.0375366,-1.01227,0.0115967,-0.00366211,-0.0369263,0.0357056,0.010376
97,3,0.0164795,0.0106812,0.0323486,0.0161743,0.0308228,-0.453796,0.0228882,0.388184,0.0292969,-0.00671387,-0.0588989,0.0125122,0.0241089
97,4,0.010376,0.0222778,0.00762939,0.0177002,0.0350952,0.273132,0.0219727,0.604248,0.0262451,-0.00457764,-0.0393677,0.0140381,-0.00274658
98,0,0.0192261,0.0387573,0.010376,0.0161743,0.0668335,0.567017,0.0344849,0.749207,0.0222778,-0.00427246,-0.0494385,0.0289917,0.0186157
98,1,0.00183105,0.0247192,0.0247192,-0.050354,0.0219727,0.255432,-0.0308228,1.24176,0.0354004,0.00305176,-0.0320435,0.0158691,0.0170898
98,2,0.0268555,0.0396729,0.0106812,0.0140381,0.0283813,-0.500793,0.0292969,2.11761,0.0762939,0.010376,-0.017395,0.038147,0.0152588
98,3,0.0152588,0.038147,0.0369263,0.00549316,0.0195312,-2.06909,0.0360107,2.10785,0.0357056,-0.0131226,-0.0265503,0.0280762,0.0140381
98,4,0.00976562,0.0320435,0.0674438,0.0177002,0.0265503,-2.01813,0.0280762,1.94794,0.0369263,0.0106812,-0.0195312,0.0125122,0.0244141
99,0,0.0088501,0.0302124,0.0378418,0.00671387,0.0115967,-1.95007,0.0427246,1.82465,0.0335693,0.00976562,-0.0286865,0.00976562,0.0100708
99,1,0.0216675,0.00427246,0.0259399,0.00457764,0.0189209,-1.86127,0.0283813,1.35162,0.027771,0.0100708,0.00244141,0.0143433,0.00640869
99,2,0.00701904,-0.0216675,-0.0231934,0.00335693,0.0292969,3.31665,0.0286865,0.885925,0.0314331,0.0140381,-0.0134277,0.0140381,0.00854492
99,3,0.0411987,-0.0476074,0.0238037,0.0152588,0.0341797,3.31024,0.0305176,-0.0646973,0.0238037,0.00183105,-0.00274658,0.0274658,0.0167847
99,4,0.00396729,-0.0875854,0.0262451,0.00701904,0.0320435,3.09174,0.0326538,-0.744019,0.0213623,0.0180054,0.0012207,-0.0378418,0.0115967
100,0,0.0170898,-0.152283,0.0183105,0.00579834,0.0415039,3.30597,0.0292969,-1.24298,0.017395,0.0201416,-0.00213623,0.00976562,0.0128174
100,1,0.00671387,-0.0531006,0.0204468,0.012207,0.0274658,3.26508,0.0494385,-0.411072,0.00488281,0.0167847,0.0106812,0.0152588,-0.00244141
100,2,0.0213623,-0.0680542,0.0650024,0.000305176,0.0186157,3.32092,0.0234985,-1.44806,-0.0128174,0.0119019,-0.0115967,0.0198364,0.0265503
100,3,0.0283813,-0.0961304,0.0137329,-0.0360107,0.0323486,3.30322,0.0402832,-2.09564,-0.00610352,0.0289917,-0.00396729,0.0234985,0.0128174
100,4,0.00762939,-0.0506592,0.0253296,0.045166,0.0119019,3.30719,0.0247192,-1.99219,0.0134277,0.0338745,-0.00518799,0.0143433,0.0115967
101,0,0.00335693,-0.00213623,0.0314331,0.0262451,0.0286865,3.28156,0.0338745,-1.89178,0.00183105,0.0292969,-0.00610352,-0.0131226,0.0238037
101,1,0.0137329,0.067749,-0.00976562,0.0274658,0.0186157,3.19672,0.027771,-1.24542,0.00366211,0.0234985,0.00244141,0.0164795,0.017395
101,2,0.022583,0.00457764,0.000915527,0.0134277,0.0241089,3.1192,0.0372314,-1.57654,0.0088501,0.0424194,-0.0152588,-0.00976562,0.00793457
101,3,0.0213623,0.0396729,-0.0106812,0.022583,0.0149536,3.03986,0.0262451,-1.29578,0.0241089,0.0494385,-0.0198364,0.0244141,0.00305176
101,4,0.0265503,-0.00915527,0.0115967,0.0170898,0.0402832,2.95563,0.0332642,0.0320435,0.0201416,0.0424194,-0.0131226,0.0192261,0.00946045
102,0,-0.00396729,-0.0012207,0.0149536,0.00640869,0.012207,2.8891,0.0268555,0.213928,0.0164795,0.0518799,0.0289917,0.0125122,0.00793457
102,1,0.017395,-0.00640869,0.0454712,0.0228882,0.0299072,2.82074,0.0372314,-1.18835,0.0274658,0.0100708,-0.00915527,0.0164795,-0.00610352
102,2,0.0299072,0.0186157,0.0231934,0.0152588,0.0265503,2.75269,0.0363159,-1.13098,0.0292969,0.0579834,-0.0134277,0.03479,0.00396729
102,3,-0.0372314,0.0216675,0.0204468,-0.0616455,0.0338745,2.69684,-0.0253296,-0.884399,0.0228882,0.0408936,-0.0497437,0.00976562,-0.00579834
102,4,-0.0314331,0.0970459,-0.00152588,0.00213623,0.0253296,2.63428,0.0427246,-0.655518,0.0445557,0.0531006,-0.0192261,0.00549316,0.0112915
103,0,-0.03479,0.0714111,0.00274658,0.0219727,0.0228882,1.96899,0.0201416,-0.273132,0.0491333,0.0744629,-0.0311279,0.00732422,0.0119019
103,1,0.0167847,0.00183105,0.015564,0.0128174,0.03479,-3.1842,0.0219727,-0.275269,0.0247192,0.0579834,-0.03479,0.0112915,0.0326538
103,2,0.00854492,-0.0131226,-0.000305176,0.00762939,0.0253296,-1.70807,0.0253296,-0.108643,0.027771,0.0650024,-0.0305176,0.0201416,0.00549316
103,3,0.0100708,0.0292969,-0.00610352,-0.0442505,0.00183105,2.66815,0.0308228,0.429382,0.0460815,0.0622559,-0.038147,0.0244141,0.0100708
103,4,0.0265503,0.0479126,0.00579834,0.022583,0.0241089,1.27441,0.00518799,1.58844,-0.00976562,0.0616455,-0.0170898,0.0177002,0.00854492
104,0,0.0204468,0.0177002,0.00946045,0.00823975,0.0204468,-2.56378,0.0302124,2.19055,0.0280762,0.0296021,-0.015564,0.010376,0.067749
104,1,0.0152588,0.083313,0.0469971,0.0234985,0.0186157,-3.25043,0.0192261,1.35498,0.0723267,0.057373,-0.0152588,-0.0430298,-0.0125122
104,2,0.0012207,0.123596,0.00671387,0.027771,0.0164795,-3.17841,0.0396729,0.348206,0.022583,0.0616455,-0.0146484,0.0125122,0.0088501
104,3,0.0653076,0.128174,0.0186157,0.0204468,0.00946045,-1.70288,0.00976562,0.829468,0.0222778,0.0592041,-0.0335693,0.0219727,0.010376
104,4,0.0198364,0.0802612,0.00640869,0.0146484,0.0366211,-3.01147,0.0125122,0.682068,0.0262451,0.055542,-0.0238037,0.0387573,0.0106812
105,0,0.0131226,0.151978,0.00518799,-0.000305176,0.0134277,2.12982,0.015564,0.0891113,0.0534058,0.0415039,-0.0115967,0.00976562,0.00183105
105,1,0.0180054,0.0939941,0.0152588,0.0119019,0.0582886,1.87134,0.0244141,0.194702,0.0396729,0.057373,-0.0115967,0.00946045,0.0152588
105,2,0.0183105,0.0588989,0.00610352,0.0201416,0.0100708,-0.488281,0.0283813,0.223389,0.0500488,0.0537109,-0.0161743,0.017395,0.010376
105,3,0.0204468,0.0454712,-0.0164795,0.0241089,0.0274658,2.84119,0.0143433,0.300293,0.0311279,0.0219727,-0.0274658,0.00762939,0.00488281
105,4,0.0210571,0.0180054,-0.0195312,0.017395,0.0332642,2.66998,0.0134277,0.378113,0.0469971,0.0357056,-0.0189209,0.00579834,0.00823975
106,0,0.027771,0.0161743,-0.0183105,0.0167847,0.0299072,-1.79718,0.0180054,0.472107,0.0408936,0.0161743,-0.0402832,0.0128174,-0.00946045
106,1,0.0146484,0.0161743,0.0088501,-0.00610352,0.020752,-3.18298,0.0216675,0.52887,0.0494385,0.0180054,-0.0335693,0.0753784,0.0216675
106,2,0.0195312,0.00305176,0.000610352,0.0109863,0.0204468,-3.17322,0.00854492,0.633545,0.0323486,0.012207,-0.0354004,0.0167847,0.0289917
106,3,0.017395,0.0195312,0.0012207,0.00457764,0.0247192,-0.362854,0.0305176,0.643311,0.0299072,0.000305176,-0.022583,0.0283813,0.0259399
106,4,0.0463867,-0.0521851,0.010376,0.00335693,0.0167847,2.91931,0.00610352,0.706482,0.0302124,0.00518799,-0.0363159,0.022583,0.0100708
107,0,0.0164795,-0.0875854,0.015564,-0.00305176,-0.0259399,2.90588,0.017395,0.744019,0.0363159,0.0265503,-0.0332642,0.0131226,0.0204468
107,1,0.0112915,-0.00976562,0.0158691,0.000305176,0.00640869,-0.691528,0.0210571,0.791016,0.0949097,0.020752,-0.0292969,0.0357056,0.0234985
107,2,-0.012207,0.0128174,0.0311279,0.038147,0.00640869,-0.853577,0.0320435,0.815125,0.0415039,0.00854492,-0.0238037,0.0814819,0.0161743
107,3,0.0195312,0.0244141,-0.0271606,0.0186157,0.015564,-3.22357,0.0186157,0.838623,0.055542,0.0189209,-0.0219727,0.0628662,0.0164795
107,4,0.0204468,0.0161743,0.0274658,0.00488281,-0.0228882,-3.18726,0.0302124,0.959778,0.00366211,0.00549316,-0.0323486,0.0280762,0.00762939
108,0,0.0125122,-0.0457764,0.0305176,0.0140381,0.0189209,-3.18298,0.0543213,1.14441,-0.00732422,0.0134277,-0.0320435,0.0241089,0.0314331
108,1,0.0308228,-0.0604248,0.0201416,0.0109863,0.010376,-0.707092,0.0128174,1.06171,-0.00305176,0.0167847,-0.0497437,0.0177002,0.0308228
108,2,0.0161743,-0.00335693,0.0198364,-0.0369263,0.00823975,-3.11554,0.083313,1.41846,-0.00823975,-0.0515747,-0.0247192,0.00823975,0.071106
108,3,0.0180054,-0.0408936,0.0476074,0.00793457,0.00274658,-3.0307,0.0216675,1.07666,-0.0109863,0.00366211,-0.0247192,0.0280762,0.0344849
108,4,0.0253296,-0.0558472,0.0476074,0.00335693,0.00183105,-2.93427,0.0283813,2.8476,0.00152588,0.00915527,-0.0427246,-0.017395,0.00427246
109,0,0.0201416,-0.0460815,0.0418091,0.00244141,-0.0140381,-2.80914,0.0219727,2.29553,-0.00579834,0.0192261,-0.0286865,0.0149536,-0.00976562
109,1,0.0134277,-0.0250244,0.0460815,0.00671387,0.0106812,-2.71484,0.00396729,1.67755,0.00335693,0.00671387,-0.0204468,0.0256348,0.0292969
109,2,0.0256348,0.0628662,-0.0244141,0.00946045,0.015564,-2.58606,0.0183105,1.35498,-0.0158691,-0.000305176,-0.0302124,-0.0131226,0.0283813
109,3,-0.000610352,0.117188,0.0372314,0.000915527,0.0186157,-2.52899,0.0186157,2.57538,0.0213623,0.00366211,-0.0488281,0.0299072,0.0238037
109,4,0.0164795,0.0793457,0.00732422,0.00488281,0.00396729,-2.45239,0.0231934,0.792542,0.0167847,0.00183105,-0.0924683,0.0405884,0.0195312
110,0,0.0112915,0.0335693,-0.0241089,-0.00762939,0.0180054,-2.34924,0.0186157,0.424194,0.0247192,0.0189209,-0.0216675,0.0314331,0.00732422
110,1,0.0283813,0.0906372,-0.0128174,0.0372314,0.022583,-2.26379,0.062561,0.448303,0.0238037,-0.00335693,-0.0210571,-0.000915527,-0.00915527
110,2,0.00671387,0.0976562,0.00701904,0.0259399,0.032959,-2.17926,0.0326538,1.09009,0.0161743,-0.0228882,-0.043335,0.00366211,0.0439453
110,3,0.00366211,0.06073,-0.00274658,0.00823975,0.0271606,-2.12646,0.022583,0.872498,0.0146484,0.0247192,-0.0350952,0.0119019,-0.00915527
110,4,0.0753784,0.0299072,0.00488281,0.0686646,0.0109863,-2.04498,0.0479126,0.974121,0.0201416,0.00366211,-0.0421143,0.0189209,0.0247192
111,0,-0.00640869,0.0222778,-0.0241089,0.03479,0.00549316,-1.8515,0.0177002,1.716,0.0384521,0.0134277,-0.0363159,0.00671387,0.0180054
111,1,0.0112915,0.015564,-0.022583,0.0192261,-0.00823975,2.16187,0.0164795,2.71515,0.0314331,0.0268555,-0.0366211,0.0119019,0.0012207
111,2,0.012207,0.0231934,0.010376,0.0247192,-0.00610352,3.30048,-0.0180054,2.21191,0.0280762,0.00671387,-0.0253296,0.022583,0.00976562
111,3,0.0604248,0.0396729,0.0219727,0.0372314,0.0259399,2.24609,0.0192261,0.444031,0.0299072,0.0689697,-0.0302124,0.0256348,0.0445557
111,4,0.0112915,0.0512695,0.0192261,0.0289917,0.00762939,0.415344,-0.0134277,-0.506592,0.0296021,-0.00183105,-0.0350952,0.0265503,0.0534058
112,0,0.0161743,0.0259399,0.0738525,0.0112915,0.0109863,-1.2207,0.0244141,-0.131226,0.0311279,0.0146484,-0.0314331,0.0396729,0.078125
112,1,0.0274658,0.017395,0.0274658,0.0286865,0.0201416,-2.19604,0.00946045,-0.0793457,0.0402832,0.017395,-0.0247192,0.0302124,0.0308228
112,2,0.0149536,0.0360107,0.0350952,0.0271606,0.000305176,-2.11334,0.032959,1.27319,0.0619507,0.022583,-0.0323486,0.0442505,0.0128174
112,3,0.020752,0.0402832,0.0247192,0.0213623,0.000610352,-2.02515,0.0314331,2.24396,0.0228882,0.0219727,-0.010376,0.022583,0.0683594
112,4,0.0363159,0.0234985,0.022583,0.012207,-0.00152588,-1.95862,0.0271606,0.993347,0.0338745,0.020752,-0.0326538,0.0341797,0.0372314
113,0,0.0320435,0.0143433,0.00976562,0.0283813,0.0216675,-1.86981,0.0299072,0.730591,0.0402832,-0.0222778,-0.0213623,0.0247192,0.0408936
113,1,0.0439453,0.0286865,0.0250244,0.0149536,0.0204468,-1.8222,0.0283813,-0.502625,0.0299072,0.0247192,-0.0344849,0.0317383,0.0189209
113,2,0.0274658,-0.0296021,0.0231934,0.0189209,0.0201416,-1.74591,0.0335693,-0.107422,0.0186157,0.0265503,-0.015564,0.0296021,0.00549316
113,3,0.0357056,0.0222778,0.0131226,-0.0131226,0.020752,-1.68579,-0.0106812,-0.577698,0.0308228,0.0747681,0.0012207,0.0231934,-0.0100708
113,4,0.0274658,-0.00152588,0.03479,0.0189209,0.0170898,-1.64032,0.0180054,-0.361633,0.0238037,0.0219727,-0.00366211,0.109253,0.0247192
114,0,0.0372314,0.0216675,0.032959,0.0161743,0.020752,-1.54175,0.0161743,1.19019,0.03479,0.0250244,-0.00640869,0.0271606,-0.00854492
114,1,0.0311279,0.0320435,0.0234985,0.00457764,0.0146484,-1.49902,0.0140381,1.03699,0.0366211,0.0317383,-0.00946045,0.0289917,0.0128174
114,2,0.0265503,0.0106812,0.0390625,0.0106812,0.0372314,-1.45935,0.0228882,1.08154,0.020752,0.0292969,-0.00823975,0.0363159,0.0363159
114,3,0.0582886,0.0350952,0.0231934,0.00518799,0.0183105,-1.31439,0.0088501,0.461121,0.0186157,0.0305176,-0.0421143,0.0311279,0.0177002
114,4,0.0430298,0.0384521,0.0253296,0.0567627,0.0140381,3.29407,0.0106812,-0.592041,0.0268555,0.020752,-0.012207,0.0299072,0.0112915
115,0,0.0402832,0.102234,0.0152588,0.00671387,-0.0109863,-0.132751,0.0115967,-0.598755,0.0143433,0.0341797,-0.0192261,0.0213623,-0.00671387
115,1,0.038147,0.0314331,0.0238037,0.0427246,0.0204468,-1.49567,0.0149536,-0.406494,0.022583,0.0393677,-0.0238037,-0.00915527,0
115,2,-0.0143433,0.0265503,0.00854492,-0.0494385,0.0210571,-1.46637,0.020752,-0.22522,0.0177002,0.0280762,-0.0201416,0.0289917,0.0396729
115,3,0.0350952,0.0180054,0.03479,0.010376,-0.00915527,-1.2793,0.0088501,0.0738525,0.0119019,0.0170898,-0.050354,0.0338745,0.0640869
115,4,0.0402832,0.0210571,0.0482178,0.00671387,0.00366211,-1.36383,0.0088501,1.29944,0.0134277,0.0363159,-0.0521851,0.0338745,0.111084
116,0,0.0360107,0.0146484,0.653687,0.0109863,0.00518799,-1.32721,0.00610352,0.532837,0.0195312,0.0238037,-0.0427246,0.0369263,0.123596
116,1,-0.00579834,0.00305176,0.41748,0.0189209,-0.015564,-1.26953,0.0436401,0.817566,-0.0088501,0.0534058,-0.0262451,0.0262451,0.0646973
116,2,0.010376,0.0143433,0.517883,0.0192261,0.000915527,0.105896,0.0265503,-0.385437,0.0186157,0.0140381,-0.0283813,0.0234985,0.0686646
116,3,0.0338745,0.020752,0.309143,0.0418091,-0.00427246,3.29254,-0.0247192,-0.44281,0.0125122,0.0088501,-0.0244141,0.0454712,0.012207
116,4,0.0332642,0.00610352,-0.114746,0.0289917,0.0448608,3.3139,0.0253296,-0.470886,0.0195312,0.0476074,-0.0302124,0.057373,0.0372314
117,0,0.0756836,0.0115967,-0.152893,-0.00762939,-0.0259399,3.29895,0.0088501,-0.422668,0.0234985,0.0354004,0.0170898,0.0177002,-0.0140381
117,1,0.0402832,0.0326538,-0.110474,0.0314331,0.214539,3.27393,0.0177002,-0.365601,0.0146484,0.0167847,-0.0149536,0.0436401,-0.0134277
117,2,0.0274658,0.0161743,-0.101929,0.0323486,0.123901,3.30414,0.0231934,-0.279541,0.0210571,0.015564,-0.0338745,0.00366211,0.0418091
117,3,0.0363159,0.0256348,-0.155029,0.0234985,-0.00915527,3.34259,0.0109863,-0.228271,0.0231934,0.0314331,-0.0384521,0.0289917,0.050354
117,4,0.0393677,0.0323486,0.012207,0.0280762,0.493469,3.2901,0.0115967,-0.187988,0.0241089,0.0296021,-0.0299072,0.0335693,0.032959
118,0,0.0259399,0.032959,-0.119629,0.0238037,0.454407,3.2959,0.0177002,-0.159912,0.0268555,0.0454712,-0.0250244,0.0396729,0.0192261
118,1,0.0152588,0.0335693,-0.102539,-0.00793457,0.456238,3.29559,0.00518799,-0.0909424,0.0271606,0.0253296,-0.0375366,0.0204468,0.020752
118,2,0.0439453,0.0366211,-0.0473022,0.0192261,0.433044,3.30994,0.0222778,-0.0610352,0.0305176,0.0238037,-0.0350952,0.0271606,0.00610352
118,3,0.0463867,0.0585938,-0.0564575,0.0305176,0.41748,3.29498,0.0186157,0.278931,0.0268555,0.027771,-0.0360107,0.0369263,0.140686
118,4,0.00610352,0.0469971,-0.0759888,0.0564575,0.423889,3.27789,0.0244141,0.773621,0.067749,0.0302124,-0.0375366,0.0540161,0.109253
119,0,0.0366211,0.0274658,-0.0534058,0.0247192,0.411682,3.19214,0.00183105,1.60309,0.0228882,0.0219727,-0.0408936,0.027771,0.116577
119,1,0.0387573,0.015564,-0.0134277,0.00457764,0.0146484,3.12073,0.0119019,1.32355,0.0262451,0.0405884,-0.0393677,0.0488281,0.202026
119,2,0.0192261,0.0344849,-0.0286865,-0.0323486,-0.0424194,3.04504,0.0527954,0.0482178,0.0283813,0.0878906,-0.0384521,0.0405884,0.12085
119,3,0.0271606,0.00732422,-0.0302124,0.0180054,-0.177917,2.99164,0.0112915,-0.0180054,0.0311279,0.0238037,-0.0375366,0.0296021,-0.00488281
119,4,0.0378418,0.0180054,-0.0537109,0.0186157,-0.212708,2.90314,0.00579834,-0.160522,0.0250244,0.0387573,-0.0274658,0.0384521,-0.038147
120,0,0.0338745,0.0253296,-0.0131226,0.0134277,-0.193481,2.82013,0.0137329,-0.172119,-0.00427246,0.0335693,-0.0299072,-0.012207,-0.0570679
120,1,0.0262451,0.0192261,0.00274658,0.0143433,-0.170593,2.76337,0.0228882,0.1297,0.0317383,0.0253296,-0.0314331,0.0204468,-0.0610352
120,2,0.0360107,0.0320435,0.00152588,0.0143433,-0.162048,2.34161,0.0152588,0.0756836,0.00976562,0.0396729,-0.0109863,0.0244141,-0.0430298
120,3,0.0732422,0.0198364,0.00946045,0.038147,-0.138245,-3.18634,0.0189209,0.110779,0.0161743,0.0357056,-0.0222778,0.0213623,-0.0454712
120,4,0.03479,-0.00457764,-0.00946045,0.00701904,-0.153503,-3.16803,0.0112915,0.189819,0.0219727,0.0268555,-0.0305176,0.0286865,-0.0219727
121,0,0.0308228,0.0292969,0.000305176,0.00457764,-0.123901,-3.19794,0.00579834,0.203552,0.00976562,0.0259399,-0.03479,0.0143433,-0.00823975
121,1,0.0369263,0.0650024,0.00946045,0.0234985,-0.151062,-3.20312,0,0.870667,-0.00244141,0.017395,-0.0268555,0.0146484,-0.0296021
121,2,0.0299072,0.0283813,0.0299072,0.00396729,-0.118103,-3.22968,0.0213623,1.5271,-0.00518799,0.0256348,-0.0354004,0.0180054,-0.0143433
121,3,0.0314331,0.0466919,0.000305176,0.017395,-0.0753784,-1.56494,-0.0500488,2.96539,0.000305176,0.0259399,-0.043335,0.0286865,-0.0213623
121,4,-0.0320435,0.0369263,0.0402832,0.0442505,-0.0918579,3.11615,0.0164795,2.93915,0.00213623,0.0564575,-0.0558472,0.0299072,-0.00976562
122,0,0.0341797,0.0534058,0.130615,0.0180054,-0.0765991,3.10242,0.0088501,2.06512,0.0198364,0.0125122,-0.0415039,0.0198364,-0.00274658
122,1,0.0219727,0.0262451,0.0332642,0.0100708,-0.0793457,-0.822754,0.00976562,-0.0958252,0.0216675,0.0286865,-0.00915527,0.017395,-0.00823975
122,2,0.03479,0.0662231,-0.0189209,0.00793457,-0.0640869,-2.74078,-0.00579834,-2.03766,0.0354004,0.0201416,-0.0375366,-0.015564,0.00793457
122,3,-0.0106812,0.03479,0.00366211,-0.00183105,-0.057373,-2.94952,0.0186157,-0.848083,0.00549316,0.0289917,-0.00518799,0.0219727,0.0164795
122,4,0.0283813,0.0466919,0.235901,0.00701904,-0.0570679,-2.63855,-0.00640869,-0.935669,0.0204468,0.0140381,-0.038147,0.0262451,-0.000915527
123,0,0.0234985,0.0411987,-0.0134277,-0.000915527,-0.0500488,-2.76703,0.0479126,-1.00281,0.0189209,0.0515747,-0.0296021,0.0320435,0.0228882
123,1,0.0231934,0.0323486,0.0512695,-0.0134277,-0.0271606,-0.957336,-0.00274658,1.15265,0.0128174,-0.00549316,-0.0466919,0.0256348,0.0100708
123,2,0.0698853,0.022583,0.126038,0.00915527,-0.0109863,0.72052,0.00579834,1.96686,0.0119019,0.0274658,-0.0357056,0.0366211,0.00946045
123,3,0.0280762,0.00762939,-0.0543213,-0.0238037,-0.0390625,2.02423,-0.00244141,1.42578,0.00946045,0.0384521,-0.0366211,0.0311279,0.0183105
123,4,0.0283813,0.00579834,0.0674438,0.00335693,-0.017395,2.98737,0.0250244,0.453796,0.0167847,0.0149536,-0.0296021,0.043335,-0.000305176
124,0,0.0338745,0.00549316,-0.0357056,0.0134277,-0.015564,3.17932,0.0134277,0.955811,0.0228882,0.00671387,-0.0164795,0.0494385,0.0357056
124,1,0.0485229,0.00579834,-0.0531006,0.0302124,-0.0119019,3.09174,0.0695801,0.536804,0.00457764,0.0250244,-0.00854492,0.0473022,0.0146484
124,2,0.0482178,0.00274658,-0.0790405,0.00854492,-0.0259399,2.99713,0.0183105,0.0341797,0.00610352,0.0234985,-0.0131226,0.0473022,0.0180054
124,3,0.03479,-0.00396729,0.188293,0.0112915,0.00244141,2.96295,0.0112915,1.88507,0.00732422,0.0372314,0.00335693,0.0405884,0.00579834
124,4,0.0421143,-0.0146484,-0.00427246,0.00640869,-0.00335693,2.89703,0.0210571,1.09924,0.0445557,0.00946045,0,0.0332642,0.0289917
125,0,0.0338745,0.00213623,-0.123291,0.0177002,-0.00823975,2.80396,0.0234985,0.994263,0.000915527,0.0222778,0.00152588,0.0143433,0.0119019
125,1,0.0158691,-0.0177002,-0.0494385,0.0100708,-0.0323486,2.742,0.00671387,0.508728,0.00854492,0.0198364,0.0259399,0.010376,0.0164795
125,2,0.00762939,0.022583,-0.0823975,0.0167847,-0.00640869,-3.21136,0.0106812,-0.186768,0.0363159,0.00427246,-0.0238037,0.012207,0.0195312
125,3,0.00366211,0.0341797,-0.0457764,0.0375366,-0.017395,-3.17444,0.0183105,-0.407715,-0.0106812,0.017395,-0.0131226,0.0088501,0.0198364
125,4,0.0210571,0.0732422,-0.128479,0.0234985,0.00549316,2.72369,0.0177002,-2.01691,-0.000305176,0.020752,-0.000915527,-0.00579834,0.0204468
126,0,0.0250244,0.0848389,-0.0448608,0.00183105,-0.00427246,-3.18939,0.00823975,-0.480042,-0.00915527,0.0402832,-0.0241089,0.00610352,0.0286865
126,1,0.039978,0.0558472,-0.0756836,0.0280762,-0.00305176,-3.16772,0.0274658,0.0531006,-0.000305176,0.0280762,-0.0204468,0.020752,0.0506592
126,2,0.0509644,0.0546265,-0.0106812,0.0134277,-0.00213623,-3.14423,0.00274658,0.0595093,-0.0418091,0.0189209,-0.0222778,0.0454712,0.0411987
126,3,0.0302124,0.0588989,-0.0115967,0.0189209,0.00335693,-3.18542,0.00762939,0.0439453,-0.00152588,0.0112915,-0.0332642,0.0445557,0.0534058
126,4,0.0430298,0.0390625,0.0466919,0.0219727,0.0088501,-3.10272,0.0164795,0.0332642,0.00946045,-0.000305176,-0.0241089,0.0479126,0.0311279
127,0,0.0363159,0.038147,0.116882,0.0289917,-0.00732422,-2.99286,0.00305176,0.0509644,0.000610352,0.0134277,-0.0238037,0.0402832,0.0363159
127,1,0.0463867,0.0497437,0.00305176,0.0222778,0.0558472,-2.89124,-0.00366211,0.00701904,-0.000915527,-0.00305176,-0.0332642,0.0305176,0.0448608
127,2,0.0265503,0.0354004,-0.0115967,0.0210571,0.0601196,-2.77649,0.0140381,0.0622559,-0.00152588,0.0149536,-0.0088501,0.0317383,0.0338745
127,3,0.0183105,-0.0305176,-0.0491333,0.0299072,0.0396729,2.80579,0.0186157,-1.70563,0.00732422,0.0167847,-0.038147,0.0247192,0.0378418
127,4,0.0231934,0.0125122,-0.0991821,0.0286865,0.090332,3.2959,0.0164795,-1.61438,-0.012207,0.000915527,-0.0311279,0.00396729,0.0512695
128,0,-0.0466919,0.00579834,-0.669861,0.0302124,0.0119019,3.21594,0.0292969,-1.35284,-0.0265503,0.0219727,-0.00183105,0.0228882,0.038147
128,1,0.0234985,0.00671387,-0.0656128,0.0323486,-0.00488281,3.0835,0.0268555,0.534058,-0.00427246,0.0119019,-0.0308228,0.00671387,0.0344849
128,2,0.0119019,0.0125122,0.0860596,0.0332642,0.0924683,3.06824,0.0372314,2.20917,-0.00488281,-0.00305176,-0.0259399,0.015564,0.0436401
128,3,-0.032959,0.000305176,0.00946045,-0.00671387,0.0445557,-0.447083,-0.0149536,0.496216,-0.00640869,-0.0088501,-0.0402832,0.0250244,0.00549316
128,4,0.0088501,-0.0012207,0.0665283,0.038147,0.0262451,2.9483,-0.00274658,2.78778,-0.00732422,0.010376,-0.020752,0.0262451,0.0354004
129,0,0.0241089,0.0100708,0.098877,0.0698853,0.0570679,2.88574,-0.000610352,1.96442,-0.00701904,0.0387573,-0.000610352,0.017395,0.0613403
129,1,0.010376,0.015564,0.111694,0.072937,0.0326538,-1.50146,0.0234985,-1.32599,-0.0146484,0.0189209,-0.0186157,0.0195312,0.0598145
129,2,0.0296021,0.0357056,0.121155,0.0537109,0.0509644,-3.1778,0.0280762,-1.2384,-0.0164795,0.00976562,-0.0140381,0.0219727,0.0363159
129,3,0.0912476,0.0335693,0.0717163,0.0762939,0.0561523,-3.17963,-0.0167847,0.847778,-0.012207,0.0244141,-0.00610352,0.0372314,0.0442505
129,4,0.0393677,-0.0244141,0.0967407,0.03479,0.0848389,-3.17932,0.00793457,0.698853,-0.00518799,0.0112915,-0.00518799,0.0137329,0.0384521
130,0,0.0491333,0.0506592,0.020752,0.0439453,0.0683594,-3.12744,0.0228882,-1.43005,-0.00671387,0.0170898,-0.0192261,0.0268555,0.0180054
130,1,0.027771,0.0320435,0.0927734,0.0537109,0.0601196,3.06213,0.0299072,-0.706787,-0.00457764,-0.00213623,-0.0143433,0.0137329,0.0326538
130,2,0.0314331,0.0350952,0.055542,0.0457764,0.0454712,3.0722,0.0296021,-1.48193,0.00823975,0.0177002,0.00335693,0.00732422,0.0253296
130,3,0.0317383,0.0466919,0.032959,-0.0125122,0.043335,2.9776,0.0466919,-1.69434,-0.0012207,0.00457764,-0.0012207,0.0140381,0.022583
130,4,0.0241089,0.0390625,0.0289917,0.0476074,0.0439453,2.91412,0.0363159,-1.42883,0.00274658,0.00579834,-0.0234985,0.0259399,0.0177002
131,0,0.0222778,0.0424194,0.0527954,0.0494385,0.0387573,2.84241,0.0317383,-1.31683,-0.00427246,0.000610352,-0.00579834,0.0396729,0.0146484
131,1,0.0241089,0.0439453,0.0653076,0.038147,-0.0149536,-3.18024,0.0250244,-1.64276,-0.0125122,0.000915527,-0.0167847,-0.00610352,0.0210571
131,2,0.0210571,0.0259399,0.0305176,0.0418091,-0.00915527,-3.22021,0.0265503,-1.49841,-0.0134277,0.0289917,-0.00671387,0.0170898,0.0143433
131,3,0.0143433,0.0112915,0.0537109,0.039978,0.0411987,2.91901,0.0369263,-1.1557,-0.0170898,0.0228882,-0.010376,0.0393677,0.0842285
131,4,0.0213623,0.0134277,0.0564575,0.0378418,0.0418091,2.89917,0.0427246,0.0521851,0.0012207,0.00823975,-0.0296021,0.0134277,0.032959
132,0,0.0170898,0.0119019,0.0558472,0.050354,0.0302124,-2.84058,0.0192261,-0.599365,-0.00671387,0.010376,-0.0137329,0.0137329,0.0653076
132,1,0.0189209,0.0271606,0.0372314,0.0402832,0.0396729,-3.18207,0.0170898,0.487366,0,0.0164795,-0.0112915,0.012207,0.0350952
132,2,-0.010376,0.00274658,0.0515747,0.027771,0.0354004,1.72028,0.0280762,0.71228,-0.00457764,0.0210571,-0.00610352,0.0198364,0.0357056
132,3,0.0320435,0.00366211,0.121765,0.0509644,0.0473022,2.93243,0.0198364,0.484009,0.0192261,0.0384521,-0.0167847,0.0119019,0.0421143
132,4,0.0158691,-0.0234985,0.0527954,0.0402832,0.00274658,2.8064,0.0186157,1.15936,-0.00946045,-0.00183105,-0.0228882,0.0140381,0.0570679
133,0,0.015564,-0.0521851,0.0442505,0.0527954,-0.00976562,-2.9129,0.0292969,2.72583,0.00244141,0.00915527,-0.0292969,0.00793457,0.0393677
133,1,0.0183105,-0.055542,0.0405884,0.0375366,-0.0100708,2.76947,0.0335693,2.8653,-0.00518799,0.0326538,-0.0216675,0.00335693,0.0427246
133,2,-0.00427246,0.0262451,0.0564575,0.0515747,0.0280762,-2.7417,0.0238037,2.79083,-0.0112915,0.0119019,-0.0271606,0.00183105,0.055542
133,3,0.0128174,0.0460815,0.0299072,0.0146484,0.0335693,-0.256042,0.0375366,1.96716,-0.0561523,0.00793457,-0.0314331,-0.027771,0.0378418
133,4,0.010376,0.0283813,0.0344849,0.0280762,0.0753784,-3.12897,0.0274658,2.68829,-0.00488281,0.0250244,-0.0350952,0.00579834,0.0436401
134,0,0.00579834,0.0540161,0.0332642,0.0430298,0.0311279,-2.9129,0.0238037,2.19788,0.00305176,0.0430298,-0.0296021,0.00396729,0.0662231
134,1,-0.0466919,0.0646973,0.0357056,0.0421143,0.0366211,-2.91382,0.0494385,1.62903,0.0137329,0.0100708,-0.0186157,0.00366211,0.0250244
134,2,0.00457764,0.0354004,0.0296021,0.00793457,0.015564,-3.19366,0.0909424,2.55371,-0.00793457,-0.0567627,-0.0299072,0.00244141,0.0494385
134,3,0.0128174,0.0500488,0.0524902,0.0369263,-0.00488281,-1.99219,0.0292969,1.24756,0.00152588,0.010376,-0.0341797,-0.00732422,0.0299072
134,4,-0.0115967,0.0790405,0.0354004,0.0436401,-0.0140381,-0.935669,0.0579834,2.35168,0.00823975,0.0204468,-0.027771,0.00579834,0.0289917
135,0,0.00366211,0.0259399,0.032959,0.0521851,0.010376,3.08563,0.0390625,2.44568,0.00976562,0.00823975,-0.0177002,0.00427246,0.00671387
135,1,-0.0341797,0.00701904,0.03479,0.0372314,-0.0170898,3.11188,0.0253296,2.38098,0.0158691,0.020752,0.00732422,0.00946045,0.0326538
135,2,0.0201416,0.0152588,0.0894165,0.0421143,0.00213623,3.05939,0.0234985,2.29126,-0.0424194,0.0128174,-0.0189209,-0.00732422,0.0375366
135,3,0.0723267,0.0244141,0.0192261,0.0268555,0.00518799,2.95288,0.0436401,2.211,0.03479,0.0100708,-0.0250244,0.00518799,0.032959
135,4,-0.0390625,0.0222778,0.0335693,0.0360107,0.0167847,2.87384,0.0402832,2.14478,0.0100708,0.0183105,-0.0115967,-0.00244141,0.0299072
136,0,-0.00366211,0.0231934,0.0384521,0.00915527,0.0140381,2.75177,0.045166,2.07428,0.0134277,0.0219727,0.0170898,0.00976562,0.0469971
136,1,0.0195312,0.00549316,0.0442505,0.0723267,0.00579834,2.66266,0.0650024,2.0166,0.0363159,0.0445557,-0.0311279,0.00640869,0.072937
136,2,0.0109863,-0.0106812,0.0292969,0.0396729,0.0350952,2.55371,0.0396729,1.95465,0.0308228,0.0198364,-0.0360107,0.0161743,0.00671387
136,3,0.0201416,0.00396729,0.0289917,0.00366211,0.0256348,2.48199,0.0521851,1.87256,0.0823975,0.0177002,-0.0396729,0.0366211,0.0585938
136,4,-0.0164795,0.00335693,0.0390625,-0.0228882,0.0408936,2.38434,-0.00305176,1.7984,0.0350952,0.0128174,-0.0344849,0.0115967,0.0408936
137,0,-0.000610352,0.00854492,0.0140381,0.0378418,0.0247192,2.15363,0.0448608,0.422974,0.0256348,0.0109863,-0.0238037,0.0158691,0.0512695
137,1,-0.00946045,0.00793457,-0.0222778,0.0372314,0.0305176,-3.23059,0.0488281,1.7041,0.0238037,0.00732422,-0.0195312,0.0109863,0.0506592
137,2,0.00732422,0.0195312,-0.0369263,0.0299072,0.0268555,-3.05237,0.0402832,1.64825,0.0250244,0.0311279,-0.0384521,0.0100708,0.0332642
137,3,-0.00518799,0.0180054,0.00396729,0.0390625,0.0259399,-2.96295,0.0445557,1.57196,0.0286865,0.0363159,-0.0296021,0.0100708,0.0228882
137,4,0.0256348,0.0152588,0.00366211,0.0830078,0.0210571,-3.17627,0.0894165,1.53107,0.00457764,0.0167847,-0.0747681,0.00366211,0.00854492
138,0,-0.00335693,0.0219727,0.0784302,0.0463867,0.0210571,-3.16589,0.0283813,1.47888,0.0430298,0.0109863,-0.0411987,0.010376,0.0695801
138,1,0.000915527,-0.000915527,0.0256348,0.0418091,0.0253296,-3.17871,0.0268555,0.856934,0.0170898,0.00396729,-0.104065,0.00732422,0.0653076
138,2,0.00244141,0.0158691,0.0137329,0.00549316,0.0195312,-1.35651,0.0210571,1.39221,0.0192261,0.0149536,-0.0408936,0.0326538,0.0662231
138,3,0.00915527,0.0192261,0.0222778,0.0210571,0.0152588,2.99469,0.017395,1.35986,0.00549316,0.00671387,-0.0308228,0.0158691,0.0521851
138,4,0.0195312,0.0497437,-0.0131226,0.0289917,0.0421143,2.91534,0.015564,1.30829,0.0100708,0.0170898,-0.0198364,0.00488281,0.0198364
139,0,0.0106812,0.0427246,0.0244141,0.0201416,0.0442505,2.80518,0.0204468,1.23383,0.0241089,-0.0112915,-0.0152588,0.00579834,-0.0274658
139,1,0.0595093,0.0375366,-0.0177002,0.0299072,0.0494385,2.69257,0.0384521,1.19781,0.0305176,0.0158691,-0.0109863,0.020752,-0.0204468
139,2,0.00701904,-0.0146484,-0.136414,0.0286865,0.0802612,-3.18054,0.0415039,1.15845,0.0244141,0.0167847,-0.0131226,0.0216675,-0.0143433
139,3,-0.0216675,0.0161743,0.0897217,-0.0222778,0.06073,2.66022,0.10498,1.11633,0.0344849,-0.0375366,-0.00213623,0.00671387,-0.0128174
139,4,0.0100708,0.0515747,0.101929,0.032959,0.0482178,-3.19061,0.0280762,1.06445,0.0415039,0.0256348,-0.0100708,0.00152588,0.0228882
140,0,0.00518799,-0.00457764,0.101013,0.0305176,0.0576782,-3.16254,0.0265503,1.02051,0.078125,0.0216675,-0.0234985,0.00457764,0.0244141
140,1,0.0152588,0.0378418,0.0201416,0.0262451,0.0436401,2.76764,0.0357056,0.995789,0.0506592,0.0183105,-0.0338745,0.0109863,0.0366211
140,2,0.00701904,0.0506592,0.0332642,0.0271606,0.106201,-3.03589,0.0280762,0.977478,0.0656128,0.0161743,-0.0183105,0.0131226,0.0366211
140,3,-0.00183105,-0.0344849,0.0827026,0.0280762,0.0469971,-3.1778,0.0445557,0.971375,0.0494385,0.0216675,-0.0488281,0.0158691,0.0610352
140,4,0.0112915,-0.00488281,-0.0857544,0.00518799,0.0128174,-3.17566,0.0418091,0.932617,0.0411987,0.0305176,-0.0354004,0.00610352,0.0430298
141,0,0.000915527,-0.00640869,-0.0146484,0.0256348,0.0259399,2.2525,0.0241089,0.882263,0.055542,0.0112915,-0.0149536,0.000915527,0.0201416
141,1,0.00213623,-0.00366211,0.0430298,0.0158691,0.0445557,2.97333,0.0216675,0.896606,0.0350952,0.012207,-0.0112915,0.00976562,0.00366211
141,2,-0.012207,0.00701904,0.0137329,-0.0332642,0.0268555,-3.16956,-0.0402832,0.880432,0.0372314,0.0222778,-0.0146484,0.0177002,0.000610352
141,3,0.0274658,0.0204468,-0.0439453,0.0201416,0.0512695,-3.16101,0.0259399,-3.16528,0.038147,0.0186157,-0.00183105,0.0189209,0.0167847
141,4,0.00854492,0.0213623,-0.0701904,0.0164795,0.0686646,-0.344543,0.032959,-3.17108,0.0308228,0.0137329,-0.039978,0.0280762,-0.00427246
142,0,-0.0152588,0.0213623,0.0692749,0.0119019,0.0402832,-1.31439,0.0198364,-3.17871,0.00183105,0.00610352,-0.00457764,0.0112915,-0.0259399
142,1,0.0106812,0.032959,0.0378418,0.0747681,0.0100708,0.891724,0.00823975,-3.17047,0.0244141,-0.0259399,0.00183105,0.0195312,-0.0411987
142,2,0.0012207,0.0735474,0.0814819,0.0167847,-0.00579834,-3.14331,0.0280762,-3.17566,0.043335,0.0140381,-0.00183105,-0.00183105,-0.0317383
142,3,-0.012207,0.0454712,0.0811768,0.00823975,0.0393677,-3.12683,0.0372314,-3.18359,0.0271606,0.0234985,-0.00823975,0.0265503,0.055542
142,4,0.0219727,0.050354,0.0628662,0.0219727,0.0445557,3.2489,0.0289917,-3.18146,0.022583,0.0140381,-0.00915527,0.0241089,0.0296021
143,0,-0.0366211,0.0323486,0.214844,0.0299072,0.0265503,-0.718994,-0.0112915,-3.16681,0.0305176,0.0216675,-0.0140381,0.038147,0.020752
143,1,0.020752,0.039978,0.24231,0.0314331,0.0167847,-3.14148,0.00152588,-3.1662,0.0469971,0.0112915,-0.00396729,0.00366211,0.0372314
143,2,0.0137329,0.0292969,0.235291,0.0326538,0.0216675,3.2309,-0.0109863,0.172424,0.0192261,0.0125122,0.00579834,0.0149536,0.022583
143,3,0.0302124,-0.000610352,0.337524,0.0222778,0.0259399,-3.11218,0.00366211,-3.1604,0.0360107,0.00579834,-0.00793457,0.0302124,-0.0421143
143,4,0.0274658,0.00976562,0.0442505,0.0250244,0.00915527,-0.751343,0.0198364,-3.16467,0.0454712,0.0222778,-0.00335693,0.017395,-0.0613403
144,0,0.0119019,-0.0283813,0.0128174,0.0259399,0.0106812,-0.501404,0.0247192,-3.18695,0.0424194,0.00793457,-0.00305176,0.0140381,-0.112915
144,1,0.00549316,-0.0222778,0.0283813,0.0320435,0.0204468,3.29834,0.0167847,-3.1778,0.0292969,0.0158691,-0.00518799,0.0137329,-0.0521851
144,2,0.0189209,-0.0131226,0.116882,0.0271606,0.015564,-0.68512,-0.0125122,-3.18146,0.0280762,0.0289917,-0.00152588,0.0189209,-0.0384521
144,3,0.0170898,-0.0158691,0.108643,0.0213623,-0.000915527,-1.07025,0.0106812,-3.16986,0.0256348,0.0314331,-0.00915527,0.0201416,-0.0234985
144,4,0.0161743,-0.0177002,-0.00762939,0.0274658,0.0234985,-0.450745,0.0183105,-3.20526,0.0405884,0.00823975,0.0146484,0.0372314,-0.0341797
145,0,0.010376,0,0.000610352,0.0253296,0.0344849,-3.16467,0.0292969,-3.16589,0.0402832,0.0372314,-0.00488281,0.0323486,-0.0622559
145,1,0.00244141,0.00946045,0.00549316,0.0152588,0.00610352,-3.14117,0.00152588,-3.16498,0.0485229,0.0012207,0.020752,0.0305176,-0.0344849
145,2,0.0241089,0.00518799,0.0305176,0.0216675,-0.00579834,3.30597,0.0341797,-3.12927,0.0500488,0.0180054,0.00305176,0.00366211,-0.071106
145,3,0.0192261,0.0302124,-0.045166,0.0274658,-0.0137329,-3.03345,0.00427246,-3.06885,0.0320435,0.0100708,0.0167847,0.0100708,-0.0442505
145,4,0.0210571,0.0540161,-0.0335693,0.0128174,0.00823975,-3.04382,0.0119019,-3.00018,0.0515747,0.022583,0.0210571,0.0152588,-0.045166
146,0,0.0424194,0.0344849,-0.0354004,0.0012207,0.0128174,3.31329,0.00671387,-2.9422,0.0280762,0.0317383,0.020752,0.0189209,-0.09552
146,1,0.0186157,0.039978,-0.0350952,0.0222778,0.0140381,3.31696,0.0177002,-2.8714,0.0619507,0.0415039,0.0219727,0.0112915,-0.0387573
146,2,0.0296021,0.0177002,-0.112,0.00518799,0.090332,3.27972,0.00793457,-2.7771,0.0421143,0.0302124,0.0192261,0.0204468,0.0482178
146,3,0.0454712,0.0469971,-0.112915,-0.00488281,-0.000305176,-3.10913,0.0158691,-2.76276,0.0360107,0.017395,0.00915527,0.017395,0.0436401
146,4,0.0131226,0.045166,-0.0482178,0.0146484,0.0170898,2.13104,-0.010376,-2.677,0.0424194,0.0186157,0.0390625,0.00579834,0.0875854
147,0,0.0396729,0.0479126,-0.0177002,-0.00457764,-0.00305176,-3.0304,0.017395,-2.66174,0.0500488,0.0170898,-0.00213623,0.00793457,0.0515747
147,1,0.027771,0.0302124,-0.00183105,0.0137329,0.050354,-2.93701,0.0314331,-2.46155,0.0311279,0.0146484,-0.00274658,0.0195312,0.120544
147,2,0.0244141,0.0177002,-0.00366211,0.0115967,0.0280762,3.31512,0.0253296,-2.34222,0.0524902,0.0354004,-0.00274658,-0.0119019,0.158386
147,3,0.0216675,0.0186157,-0.0012207,-0.0012207,0.0149536,-2.18689,0.0213623,-2.26166,0.0363159,0.0518799,-0.0186157,0.0234985,0.0515747
147,4,0.0387573,0.0100708,0.00457764,0.0534058,0.0131226,3.31146,-0.0210571,-2.19482,0.0396729,0.0640869,0.00396729,0.0231934,-0.0799561
148,0,0.0247192,-0.00732422,0.017395,0.00549316,-0.00305176,3.29956,0.017395,-2.12036,0.0613403,0.0262451,-0.0100708,0.0271606,-0.0775146
148,1,0.0534058,-0.0112915,0.0183105,-0.0198364,0.015564,3.24646,0.0396729,-2.05963,0.0360107,0.0216675,-0.0576782,0.0241089,-0.0506592
148,2,0.0305176,-0.0372314,0.00732422,0.00427246,0.039978,-3.16071,0.0421143,-1.97571,0.0344849,0.0280762,-0.0323486,0.0115967,0.0112915
148,3,-0.0317383,-0.0292969,0.0109863,0.000610352,-0.0106812,3.19366,0.0378418,-1.93909,0.0268555,0.0244141,-0.0192261,0.0161743,-0.0354004
148,4,0.0280762,-0.0158691,0.0228882,-0.00457764,0.0256348,-0.871887,0.0131226,-1.88568,0.0372314,0.0286865,-0.043335,0.0210571,-0.00518799
149,0,0.0268555,-0.0292969,0.00762939,0.00244141,0.0228882,-0.283813,0.050354,-1.86127,0.0442505,0.0662231,-0.0473022,0.0338745,0.00152588
149,1,0.0305176,-0.0204468,-0.0265503,0.0186157,0.00335693,-3.18939,0.0164795,-1.82739,0.0390625,0.0341797,-0.0244141,0.0213623,-0.0680542
149,2,-0.00823975,-0.00915527,0.0213623,-0.0186157,0.0247192,-3.17383,0.0183105,-1.77124,0.0384521,0.0375366,-0.0344849,0.0161743,0.0134277
149,3,0.0241089,0.0787354,0.0177002,-0.0088501,0.0253296,-1.72852,0.0411987,-1.77734,0.0579834,0.0360107,-0.0445557,0.0280762,0.0186157
149,4,0.00640869,0.0186157,0.00732422,-0.00366211,0.0149536,2.46368,0.0427246,-1.70044,0.0360107,-0.950012,-0.0469971,0.0222778,0.0177002
150,0,0.0350952,0.0292969,0.0384521,0.0164795,0.0265503,-3.05634,0.043335,0.975037,0.0289917,-1.2793,-0.0457764,0.020752,0.0189209
150,1,0.0302124,0.0183105,0.0222778,-0.00244141,0.0540161,-0.0088501,0.0494385,0.524292,0.0320435,-2.11609,-0.0610352,0.0354004,0.0421143
150,2,0.017395,0.0405884,0.0131226,-0.00732422,0.0234985,3.27667,0.0689697,-1.43402,0.0360107,-2.91962,-0.0491333,0.0247192,0.022583
150,3,0.0256348,0.0369263,0.010376,-0.00671387,0.0231934,-3.06824,0.0411987,-1.31836,-0.010376,-0.00274658,-0.0500488,-0.0473022,0.0314331
150,4,0.0271606,0.0613403,0.00244141,0.000305176,0.0234985,-1.6037,0.0335693,-0.395508,0.0369263,1.04156,-0.0628662,-0.0125122,0.0396729
151,0,0.0180054,0.0445557,0.0183105,0.00152588,0.0234985,-1.63147,0.0228882,-0.974426,0.0500488,0.774536,-0.0473022,0.0350952,0.0463867
151,1,0.0296021,0.0323486,0.0106812,-0.0119019,0.0238037,3.32031,0.0292969,0.0964355,0.0482178,-0.252991,-0.0515747,0.0128174,0.0527954
151,2,0.0338745,0.0271606,0.0720215,-0.0134277,0.0268555,-1.91803,0.0292969,-0.363159,0.00427246,-1.5863,-0.0518799,0.0549316,0.0671387
151,3,0.017395,0.00671387,0.00213623,0.00854492,0.0238037,-0.967407,0.0735474,-1.46973,0.045166,0.288086,-0.0497437,0.00335693,0.0793457
151,4,0.0198364,-0.0109863,0.0119019,-0.00610352,0.0238037,-1.22375,0.0369263,-0.152588,0.0518799,1.01471,-0.0546265,0.0210571,0.062561
152,0,0.0234985,0.0558472,0.0216675,0.0109863,-0.0268555,2.48077,0.0411987,1.48834,0.0332642,0.924988,-0.045166,0.00396729,0.0637817
152,1,0.0323486,-0.00823975,0.0256348,-0.00793457,0.0247192,3.30109,0.0427246,1.82465,0.0402832,1.03546,-0.0314331,-0.00366211,0.0830078
152,2,0.0415039,-0.00976562,0.00610352,-0.000915527,0.0234985,3.21899,0.0405884,2.72156,0,1.07513,-0.0335693,0.015564,0.0476074
152,3,0.0476074,-0.0125122,-0.0088501,-0.00488281,0.032959,3.12073,0.0415039,0.993042,0.0463867,0.92804,-0.0436401,0.0238037,0.104065
152,4,0.0296021,-0.0689697,0.0140381,0.0115967,0.0421143,3.0011,0.0292969,2.06177,0.03479,1.29791,-0.0448608,0.0418091,0.137329
153,0,0.0323486,-0.00305176,0.020752,-0.0131226,0.0299072,2.89673,0.0357056,3.30048,0.0384521,0.579224,-0.0524902,0.0592041,-0.0292969
153,1,0.0375366,-0.0186157,0.0186157,0.00427246,0.020752,2.78473,0.0421143,-1.30005,0.0469971,0.218506,-0.071106,0.0387573,-0.0485229
153,2,0.0619507,-0.0106812,0.0180054,-0.0152588,0.00976562,2.68799,0.0271606,3.27698,0.0482178,0.254822,-0.0534058,0.0253296,-0.0466919
153,3,0.0509644,-0.00305176,0.0198364,-0.00671387,0.00854492,2.57507,0.0198364,3.31421,0.0296021,0.248413,-0.0479126,0.0497437,-0.0274658
153,4,0.0204468,0.00854492,0.00946045,0.00213623,0.0250244,2.5119,0.03479,-1.08734,0.0158691,0.321045,-0.0497437,0.0238037,0.00976562
154,0,-0.0299072,0.0158691,0.0134277,-0.00762939,0.0186157,2.41364,0.0271606,3.2959,0.0238037,0.137329,-0.0457764,0.0350952,-0.0213623
154,1,0.0463867,0.00335693,0.0201416,-0.0204468,0.0250244,2.33795,0.045166,-1.78223,0.055542,0.264587,-0.0460815,0.0674438,-0.0308228
154,2,0.0177002,0.0296021,0.0299072,0.0109863,0.0244141,2.24854,0.017395,1.80603,0.0213623,0.308838,-0.0653076,0.0289917,-0.022583
154,3,0.00427246,0.0393677,0.00549316,0.0134277,0.022583,2.17896,0.0415039,-0.947571,0.0256348,0.307617,-0.0823975,0.015564,0.0323486
154,4,0.0405884,0.027771,-0.0012207,-0.0216675,0.0201416,2.10297,0.0631714,-0.691528,0.0198364,0.338745,-0.0415039,0.0286865,0.0183105
155,0,0.0299072,0.0466919,0.00427246,0.00915527,0.0234985,2.00592,0.0180054,1.8222,0.0302124,0.283508,-0.0335693,0.0500488,0.0183105
155,1,0.0280762,0.0424194,-0.000305176,-0.0305176,0.020752,1.96808,0.0588989,2.85187,0.0201416,0.20874,-0.0292969,0.039978,0.0183105
155,2,0.0289917,0.067749,0.00366211,-0.00579834,0.00640869,1.88141,0.0378418,1.20819,0.0274658,0.180359,-0.0424194,0.0177002,0.00274658
155,3,-0.00335693,0.0170898,0.0192261,0.0665283,0.0213623,1.83044,-0.00915527,-2.07581,0.0115967,0.125427,-0.0366211,0.0491333,0.0515747
155,4,0.00274658,0.0228882,0.00549316,0.00579834,0.00427246,1.75934,0.0265503,1.04675,0.017395,0.151062,-0.0299072,0.0299072,0.0289917
156,0,0.0286865,-0.00335693,0.0152588,-0.00366211,0.00457764,1.69342,0.0195312,1.00494,0.0457764,0.131226,-0.0363159,0.0442505,0.0396729
156,1,0.0421143,-0.0198364,-0.0109863,0.0170898,-0.0112915,1.69342,0.0167847,0.935059,-0.0195312,0.115967,-0.0418091,0.0912476,-0.00305176
156,2,0.0250244,-0.0106812,0.00427246,-0.000305176,0.00701904,0.962219,0.0115967,1.17767,0.0137329,0.100403,-0.0289917,0.0558472,0.00793457
156,3,0.0561523,-0.00976562,0.00305176,0.010376,0.0140381,0.241089,-0.0195312,1.12061,0.017395,0.13092,-0.0372314,0.0509644,0.00762939
156,4,0.0592041,-0.00488281,0.0228882,0.0137329,-0.0253296,-0.23468,0.0167847,1.5921,0.017395,0.0689697,-0.012207,0.0402832,0.0512695
157,0,0.0628662,0.0012207,-0.00213623,0.022583,-0.0100708,1.38611,0.0146484,1.64154,0.0112915,0.0628662,-0.0314331,0.0592041,0.0949097
157,1,0.0476074,-0.000305176,0.0149536,0.00579834,-0.00366211,1.49689,0.00579834,1.91162,0.0198364,0.0460815,-0.0198364,0.0274658,0.0778198
157,2,0.0558472,0.017395,0.0149536,0.000610352,-0.00671387,1.46454,0.0177002,1.89331,-0.00213623,0.0531006,-0.0158691,0.00244141,0.0726318
157,3,0.032959,0.0170898,0.0326538,0.0088501,0.012207,1.21307,0.00640869,2.0517,0.0323486,0.0259399,-0.0100708,0.0100708,0.0799561
157,4,0.0418091,0.0213623,0.00762939,0.0158691,0,0.898743,0.00732422,2.13287,0.0344849,0.0384521,-0.0289917,0.0247192,0.0546265
158,0,-0.00610352,0.00549316,0.043335,0.00701904,-0.00732422,0.639038,-0.00305176,1.97205,0.0152588,0.0177002,-0.00701904,0.00396729,0.0393677
158,1,0.00762939,-0.0289917,0.0274658,0.00305176,0.00152588,0.439453,0.00762939,1.16516,0.0143433,0.0427246,-0.03479,0.0192261,0.0717163
158,2,-0.00396729,0.00946045,0.0305176,0.0189209,0.00274658,0.200195,0.0210571,0.341492,-0.00549316,0.0146484,-0.0341797,0.015564,0.0408936
158,3,0.00579834,0.045166,0.0418091,0.0231934,0.00976562,0.0341797,0.00823975,0.697327,0.0366211,0.00488281,-0.0128174,0.0088501,0.0396729
158,4,0.0283813,0.088501,-0.0106812,0.0177002,0.0506592,-0.444946,0.0125122,0.549927,0.00549316,0.00305176,-0.0265503,-0.000610352,0.0213623
159,0,0.0296021,0.0823975,-0.00579834,0.0119019,0.0653076,-0.661621,0.00457764,0.650635,0.0109863,0.00427246,-0.027771,0.0189209,0.0268555
159,1,0.0332642,0.0671387,0.0012207,0.022583,0.0177002,-0.674438,0.0112915,0.21637,0.0125122,-0.00762939,-0.0177002,0.0296021,0.0213623
159,2,0.0323486,0.0997925,-0.000915527,0.0299072,-0.038147,-0.354004,0.0170898,0.23407,-0.00488281,-0.00701904,-0.0180054,0.0314331,0.00549316
159,3,0.0177002,0.0323486,0.00427246,0.0271606,0.00396729,-0.397339,0.0164795,0.587158,0.0238037,-0.0115967,-0.0180054,0.0213623,-0.00457764
159,4,0.0268555,0.0720215,0.00366211,0.017395,0.00457764,-1.19232,0.0112915,0.291443,0.0164795,0.00762939,-0.0238037,0.0308228,-0.0192261
160,0,0.0302124,-0.00549316,-0.0341797,0.0274658,0.0250244,-3.19763,0.0128174,0.640869,0.0314331,-0.000915527,-0.017395,0.0350952,-0.0640869
160,1,-0.0201416,0.00793457,-0.00335693,0.0372314,0.0302124,-3.19336,0.0119019,0.438232,0.0012207,-0.0292969,-0.0222778,0.0308228,-0.0363159
160,2,-0.0177002,0.012207,-0.0012207,0.0469971,0.0411987,-3.18451,0.0692749,0.321655,0.0152588,0.020752,-0.0134277,0.0143433,-0.10498
160,3,0.0222778,0.0100708,0.0268555,0.0167847,0.0283813,-3.17535,0.00610352,0.130005,0.0152588,-0.0238037,-0.00762939,0.00946045,-0.0354004
160,4,0.0244141,0.00183105,0,0.0274658,0.0317383,0.325623,0.00610352,0.37323,0.00518799,-0.00518799,-0.00823975,0.0125122,-0.0384521
161,0,0.0421143,0.00946045,-0.032959,0.0296021,0.0311279,-3.19946,0.00793457,0.362854,-0.0088501,-0.0305176,-0.020752,0.0314331,-0.0189209
161,1,-0.0088501,-0.0149536,0.00213623,0.0271606,0.0393677,-3.19031,0.00244141,0.106201,-0.00427246,-0.0189209,-0.0268555,0.0384521,-0.0219727
161,2,0.0592041,0.0265503,0.0204468,0.0210571,0.0299072,-1.46881,0.0161743,0.298767,0.0213623,-0.0268555,-0.0244141,0.032959,-0.012207
161,3,0.032959,0.0299072,-0.0308228,0.0567627,0.0119019,2.0929,-0.0167847,0.214233,-0.00549316,-0.0335693,-0.0125122,0.0164795,-0.0238037
161,4,0.0411987,0.0320435,0.00823975,0.0482178,0.0244141,2.01813,0.0134277,0.136719,0.00701904,-0.0253296,-0.0161743,0.0357056,-0.0128174
162,0,0.043335,0.0323486,0.00335693,0.0488281,0.0189209,1.94092,-0.00183105,0.110779,0.00946045,-0.0231934,-0.0311279,0.0183105,0.00671387
162,1,0.0146484,0.0527954,0.0088501,0.0323486,0.0384521,1.84021,0.0115967,0.130005,0.0125122,-0.0311279,-0.0219727,0.00915527,-0.00640869
162,2,0.0299072,0.0631714,0.0152588,0.0311279,0.03479,0.814514,0.0305176,0.131531,0.0125122,-0.0317383,-0.0152588,0.020752,0.012207
162,3,0.0314331,0.0640869,0.0146484,0.0695801,0.00701904,0.305481,0.0167847,-0.164185,0.0167847,-0.039978,-0.0442505,0.045166,0.00793457
162,4,0.0384521,0.0491333,0.015564,0.00518799,0.022583,1.16577,-0.0439453,0.0756836,-0.000610352,-0.0613403,-0.0140381,0.0491333,0.0204468
163,0,0.0338745,0.0610352,0.0149536,0.0402832,0.00244141,0.964355,0.0247192,0.0152588,0.00915527,-0.017395,-0.00854492,-0.0186157,0.0234985
163,1,0.0296021,0.0427246,0.0494385,0.0598145,-0.000305176,-2.10754,0.022583,-0.385132,-0.0576782,-0.0265503,-0.020752,0.0317383,0.00915527
163,2,0.0195312,0.0421143,0.0900269,0.0457764,0.00915527,1.27228,0.015564,-0.61554,0,-0.0283813,-0.0228882,0.0335693,0.0393677
163,3,0.0259399,0.0366211,-0.0344849,0.0286865,-0.0204468,-3.18481,0.0131226,-0.550232,0.00305176,-0.0289917,-0.0299072,0.0289917,0.0265503
163,4,0.0247192,0.0180054,0.0128174,0.0869751,-0.00488281,-3.18695,0.0372314,-0.291748,-0.00152588,-0.0540161,-0.00915527,0.0265503,-0.0134277
164,0,0.0241089,0.0131226,0.078125,0.0494385,0.00732422,-3.17474,0.0219727,-0.506897,-0.0457764,-0.0256348,-0.0259399,0.0299072,0.039978
164,1,0.0326538,0.00152588,0.0369263,0.0421143,0.0372314,-3.19702,0.0231934,-0.559387,0.000305176,-0.0210571,-0.0158691,0.0308228,0.0390625
164,2,0.00366211,-0.0396729,0.0161743,0.0494385,0.0241089,-0.61615,0.0100708,-0.429993,0.00976562,-0.00579834,-0.0119019,0.0247192,0.0415039
164,3,0,-0.0106812,0.0109863,0.0390625,-0.0128174,-3.1955,0.0238037,-0.399475,0.0115967,-0.0286865,-0.00701904,0.0238037,0.0213623
164,4,0.00976562,0.0161743,0.0238037,0.0585938,0.0265503,1.07849,0.0198364,-0.546875,0.00396729,-0.0247192,-0.0183105,0.0152588,0.0149536
165,0,0.0088501,0.00732422,-0.0244141,0.038147,0.0161743,1.97693,0.0177002,-0.23468,-0.000915527,-0.0210571,-0.00976562,0.0244141,0.0418091
165,1,0.0314331,0.00946045,0.0335693,0.0942993,0.0302124,0.46051,0.0341797,-0.21637,0.00244141,-0.00183105,-0.00701904,0.0109863,0.043335
165,2,0.0213623,0.0411987,0.045166,0.0402832,0.0375366,-1.05927,0.0268555,-0.643921,0.0241089,-0.0192261,-0.00244141,0.0274658,0.0445557
165,3,0.0445557,0.0405884,0.0164795,0.0708008,0.0259399,0.586548,0.0100708,-0.788269,0.00183105,-0.0579834,-0.0457764,0.0259399,0.0640869
165,4,0.0320435,0.0726318,0.0268555,0.0283813,-0.0241089,2.0163,0.0134277,-0.838623,0.00457764,0.00244141,-0.00366211,0.0256348,0.0546265
166,0,0.0216675,-0.0183105,0.0390625,0.0350952,0.0418091,2.04437,0.0247192,-0.87616,0.0137329,-0.020752,-0.00946045,0.0531006,0.0332642
166,1,0.0140381,0.027771,0.038147,0.0430298,0.0418091,1.98425,0.0195312,-0.929565,0,-0.0195312,-0.0137329,0.0158691,0.0509644
166,2,0.0128174,0.0531006,0.0369263,0.0408936,0.0778198,0.949097,0.0402832,-0.863342,0.0088501,-0.0363159,-0.0146484,0.0228882,0.0204468
166,3,0.0692749,0.0564575,0.027771,0.0396729,0.0320435,-2.16583,0.010376,-0.697021,0.0305176,-0.0152588,0.00457764,0.0204468,0.0378418
166,4,0.0088501,0.0454712,0.0427246,0.032959,0.0189209,0.506287,0.0250244,-0.556946,0.00610352,-0.0326538,-0.0189209,0.0354004,0.0167847
167,0,0.0167847,0.0558472,0.0292969,0.038147,0.0491333,0.517578,0.027771,-0.762634,-0.0088501,-0.0292969,-0.03479,0.0271606,0.0323486
167,1,0.038147,0.0466919,0.0265503,0.0354004,-0.000610352,-0.847168,0.0372314,-1.31348,-0.000305176,-0.012207,-0.0350952,0.03479,0.0238037
167,2,0.0411987,0.0350952,0.0354004,0.0875854,0.0289917,-3.18359,0.0354004,-1.08215,0.00915527,-0.0286865,-0.03479,0.0350952,0.0375366
167,3,-0.0302124,0.0332642,0.0119019,0.0338745,-0.00976562,0.130615,0.0259399,2.25769,0.0198364,-0.000305176,-0.0317383,0.0427246,0.0430298
167,4,0.0198364,0.0140381,0.0378418,0.0326538,0.022583,1.62811,0.0344849,3.29254,0.00579834,-0.00152588,-0.0152588,0.0204468,0.0415039
168,0,0.0268555,0.0534058,0.043335,0.039978,0.0512695,0.55603,0.0183105,3.34961,0.015564,0.00152588,-0.0244141,-0.00579834,0.0198364
168,1,-0.00457764,0.00915527,0.020752,0.0372314,0.0201416,-0.372314,0.055542,3.29102,0.0100708,0.0106812,-0.0466919,-0.0158691,0.038147
168,2,0.0183105,0.00274658,0.0274658,0.0192261,0.0421143,-1.00372,0.0231934,3.25409,-0.0335693,-0.00610352,-0.0366211,0.00274658,0.0289917
168,3,0.027771,0.0186157,0.0408936,0.0521851,0.0244141,1.32019,0.0305176,3.17749,0.0125122,-0.00701904,-0.0357056,0.0256348,0.0167847
168,4,0.0314331,0.00396729,0.0479126,0.0274658,0.0125122,1.56128,0.0378418,3.11188,0,-0.0213623,-0.0253296,0.0827026,0.0512695
169,0,0.0405884,0.0134277,0.045166,0.0177002,0.027771,1.36536,0.00427246,3.03619,0.0177002,-0.00518799,-0.0317383,0.039978,0.0378418
169,1,0.039978,0.0146484,0.0372314,0.038147,0.0228882,1.12183,0.0241089,2.95471,0.010376,-0.00793457,-0.0100708,0.0372314,0.0354004
169,2,0.0234985,-0.0292969,0.0439453,0.0296021,-0.000305176,0.892639,0.0231934,2.89703,0.0222778,-0.0088501,-0.0253296,0.0454712,0.0244141
169,3,0.0134277,0.0244141,-0.0137329,0.0466919,0.0112915,0.706177,0.0143433,2.85156,0.0161743,0.000915527,-0.0131226,0.0479126,0.0576782
169,4,0.0430298,-0.0350952,0.0372314,0.0320435,0.0543213,0.503235,0.0280762,2.80487,0.0286865,0.00610352,-0.0164795,0.06073,0.0408936
170,0,0.0408936,0.0506592,0.0622559,0.0344849,-0.00366211,0.297546,0.027771,2.71606,0.0131226,-0.00183105,-0.00152588,0.0427246,0.0857544
170,1,0.039978,0.0946045,0.0286865,0.0317383,0.0274658,0.098877,0.0323486,2.66144,0.0204468,-0.0476074,-0.0164795,0.057373,0.0286865
170,2,0.0338745,0.0732422,0.0378418,0.0427246,0.0418091,-3.19183,0.0308228,2.6123,0.0143433,0.000305176,-0.0204468,0.0317383,0.0265503
170,3,0.000915527,0.0396729,0.0262451,0.0296021,0.0302124,-3.19214,0.0369263,2.52869,-0.00701904,0.00457764,-0.015564,-0.0180054,0.00549316
170,4,0.00579834,0.00274658,0.0189209,0.0271606,0.00579834,-3.17444,0.0100708,2.43591,0.00640869,0.000915527,-0.00579834,0.0152588,0.022583
171,0,0.0149536,0.0302124,0.0250244,0.0286865,-0.0088501,-3.18817,0.0180054,2.40417,0.0210571,-0.0137329,-0.00518799,-0.0115967,0.0296021
171,1,0.0125122,0.032959,-0.0274658,0.0357056,0.020752,-3.25073,0.0210571,2.27203,-0.0180054,-0.010376,-0.0222778,-0.00640869,-0.00732422
171,2,0.0265503,0.0247192,0.0131226,0.0402832,0.0119019,-3.19244,0.015564,2.19269,0.03479,-0.000915527,-0.0204468,0.010376,0.032959
171,3,0.0131226,0.00732422,0.0256348,0.0167847,0.0167847,-3.18481,0.022583,2.11517,0.0256348,0.00396729,-0.0204468,0.00274658,0.0234985
171,4,0.0219727,0.0146484,0.0204468,0.0222778,0.00915527,-3.18054,0.0140381,2.06055,0.0686646,0.0012207,-0.0238037,0.022583,0.0592041
172,0,0.0222778,0.00518799,0.022583,0.0222778,0.020752,-3.15216,0.015564,1.99646,0.020752,-0.000610352,-0.0308228,-0.0195312,0.0463867
172,1,0.00701904,0.0152588,0.0350952,0.027771,0.0125122,-3.05267,0.0183105,1.92291,0.0311279,-0.00274658,-0.0234985,0.00457764,0.0469971
172,2,0.0305176,0.0177002,0.0256348,0.0323486,0.00579834,0.759888,0.022583,1.83441,0.0335693,-0.0109863,-0.0344849,0.0317383,0.0488281
172,3,0.0149536,0.022583,0.0219727,0.038147,0.000610352,2.91229,0.0531006,1.79291,0.0280762,0.00213623,-0.0326538,0.00518799,0.126953
172,4,0.0109863,0.00335693,0.0387573,0.0177002,0.027771,2.80762,0.0393677,1.74133,0.0274658,-0.00396729,-0.00549316,0.0357056,0.0469971
173,0,0.0430298,0.00366211,0.0488281,0.0158691,0.0408936,2.69836,0.0421143,1.6629,0.0238037,-0.00213623,-0.0289917,0.0332642,0.176392
173,1,0.0189209,-0.020752,0.0299072,0.0299072,0.0515747,-0.676575,0.0201416,1.61285,0.0247192,0.00640869,-0.0296021,0.0296021,0.268555
173,2,0.0308228,0.0317383,0.0311279,0.0366211,0.027771,2.09259,0.0357056,1.55457,0.0341797,0.00183105,-0.0204468,0.0958252,0.393982
173,3,0.0436401,0.0369263,0.055542,0.0146484,0.0411987,-3.1778,0.0219727,1.49597,0.0219727,0.0146484,-0.0360107,0.0415039,0.0854492
173,4,0.0476074,0.0494385,0.00762939,-0.00335693,0.0335693,-2.84637,0.0415039,1.45447,0.0610352,-0.0344849,-0.0640869,0.0439453,-0.0360107
174,0,0.0119019,0.0341797,0.0204468,0.00854492,0.0274658,2.7478,0.0183105,1.39252,-0.0119019,-0.0274658,-0.0195312,0.0390625,0.181274
174,1,0.0567627,0.0253296,0.0332642,0.0161743,0.0198364,-3.15826,0.0256348,1.34827,0.0152588,0.0140381,-0.0268555,0.00549316,0.119629
174,2,0.022583,0.0509644,0.032959,0.0234985,0.0405884,2.73193,0.00183105,1.32446,0.00976562,0.010376,-0.039978,0.0332642,-0.0906372
174,3,-0.0250244,0.0210571,0.0189209,0.0128174,0.0308228,2.69745,0.0253296,1.24817,0.0289917,0.0109863,-0.0216675,-0.0250244,0.176392
174,4,0.00396729,0.0317383,0.0112915,0.0140381,0.0415039,2.59369,0.0317383,1.20148,0.0247192,0.0158691,-0.0167847,-0.0497437,0.889893
175,0,-0.00366211,0.0512695,0.0186157,0.0158691,0.0354004,2.50977,0.0280762,1.14899,0.027771,0.00640869,-0.0158691,-0.0698853,0.519104
175,1,0.00976562,0.0534058,0.0222778,0.0180054,0.0210571,1.92413,0.0106812,-0.085144,0.0259399,0.0119019,-0.0177002,-0.039978,1.20392
175,2,0.00976562,0.0473022,0.0360107,0.0836182,0.0308228,2.33917,0.00549316,-3.20251,0.0158691,0.00793457,-0.0161743,-0.0241089,0.458374
175,3,0.0201416,0.0186157,0.022583,0.0286865,0.00701904,2.24304,0.000915527,-3.16925,0.0234985,0.0140381,-0.0195312,0.0332642,-0.0445557
