Devices
1000
,,Myon - Voltage,,,,,,,,,,,,,
Frame,Sub Frame,GC-M,TA,SOL,VM,VL,RF,BF,ST,GLUT-M,Gracilis,EO,GC-L,Semimembranosus
,,V,V,V,V,V,V,V,V,V,V,V,V,V
1,0,0.0192261,0.0183105,0.0146484,0.0210571,0.0286865,1.26801,0.00671387,0.821228,0.020752,0.017395,-0.0262451,0.0100708,0.0161743
1,1,0.0186157,0.00793457,-0.00701904,0.0302124,0.0238037,1.95374,0.0244141,0.418701,0.0137329,0.0411987,-0.0167847,0.0119019,-0.00213623
1,2,0.015564,0.0234985,0.00823975,0.0247192,0.0177002,1.2146,0.0268555,0.33844,0.0311279,0.0192261,-0.0268555,0.0183105,0.0238037
1,3,0.0210571,0.00152588,-0.0320435,0.00701904,0.0289917,-0.452576,0.0274658,0.469055,0.0280762,0.0195312,-0.0271606,0.00915527,0.0192261
1,4,0.00488281,0.0158691,0.0213623,0.0100708,0.0216675,-0.691833,0.0384521,0.582275,0.0332642,0.0119019,-0.0106812,0.000610352,0.00762939
2,0,0.0241089,0.0360107,0.0195312,0.00946045,0.0354004,-2.53479,0.0308228,0.617065,0.0256348,0.0247192,-0.0234985,0.022583,0.0088501
2,1,0.0408936,0.00244141,0.010376,0.00335693,0.022583,-2.15363,0.0292969,0.280762,0.0253296,0.0180054,-0.0213623,0.00366211,0.0170898
2,2,0.0177002,0.0140381,0.000610352,0.0100708,0.00305176,-1.31805,0.0292969,0.0012207,0.0280762,0.0195312,-0.0167847,0.00549316,0.0183105
2,3,0.0292969,0.0125122,0.0201416,0.0271606,0.0402832,-2.30103,0.03479,-0.47699,0.0354004,0.0201416,-0.0213623,0.0228882,0.0134277
2,4,0.0149536,0.0131226,0.0128174,-0.0216675,0.0189209,-2.51892,0.0299072,0.231628,0.0219727,0.0527954,-0.0131226,0.010376,0.0473022
3,0,0.00946045,0.0152588,0.0112915,0.0143433,0.0271606,-2.0285,0.0247192,0.0445557,0.0216675,0.0119019,-0.0222778,0.00213623,-0.000610352
3,1,0.020752,0.0286865,0.0137329,0.0344849,0.0119019,-1.34857,0.0674438,-0.506592,0.0210571,0.0567627,-0.00518799,0.0161743,0.0189209
3,2,0.00701904,0.0161743,0.0119019,0.012207,0.0314331,-1.96198,0.0421143,-0.229492,0.0350952,0.00488281,-0.00549316,-0.00701904,0.0289917
3,3,0.0115967,0.0186157,0.00213623,0.0323486,0.0115967,-2.25891,0.0338745,0.369263,0.03479,0.0201416,-0.0140381,0.0088501,0.0183105
3,4,0.00915527,0.0210571,0.0146484,0.00549316,-0.0238037,-1.91833,0.0241089,0.0198364,0.020752,0.0244141,-0.0164795,0.0100708,0.010376
4,0,0.0253296,0.0210571,0.0213623,0.0152588,0.0549316,-0.541687,0.038147,-0.357971,0.0259399,0.0228882,0.0180054,0.00183105,0.00427246
4,1,0.0265503,0.0161743,0.00366211,0.00457764,0.0183105,-1.57227,0.0247192,0.0369263,0.0134277,0.0186157,-0.0326538,0.000305176,0.0271606
4,2,0.0296021,0.000610352,0.0128174,0.0088501,0.012207,-1.99493,0.0366211,0.431519,0.0787354,0.0198364,-0.0314331,0.0738525,0.0231934
4,3,0.0177002,0.0115967,0.00640869,0.0112915,0.0140381,-1.93054,0.0305176,0.328369,0.0213623,0.0192261,-0.0521851,0.00946045,0.017395
4,4,0.0140381,0.0192261,0.0418091,0.0256348,0.0177002,-1.83441,0.0180054,0.671082,0.0177002,0.0268555,-0.020752,0.0195312,0.0335693
5,0,0.0250244,0.0384521,0.00610352,0.00518799,-0.0424194,-1.80603,0.0317383,1.07117,0.0192261,0.0189209,-0.0164795,-0.0231934,-0.00213623
5,1,0.0378418,0.0152588,0.0183105,0.0274658,0.0161743,-1.75751,0.0369263,0.745544,0.0305176,0.0338745,-0.0338745,0.0115967,0.0119019
5,2,0.0387573,0.00976562,0.0360107,0.0479126,0.0210571,-1.68671,0.0332642,0.30304,0.0222778,0.0292969,-0.0531006,0.0128174,0.0161743
5,3,0.0192261,0.0262451,0.0100708,0.0622559,0.0204468,-1.66412,0.062561,1.37573,0.0421143,0.0167847,-0.0186157,0.0195312,0.017395
5,4,-0.0170898,0.00946045,0.0161743,0.0256348,0.0137329,-1.6217,0.0253296,0.897827,0.0335693,0.0134277,0.000610352,0.000610352,0.00610352
6,0,0.00457764,0.0283813,0.010376,0.0119019,0.0357056,-1.58356,0.0231934,0.327454,0.0274658,0.0540161,-0.0311279,0.0198364,0.0109863
6,1,0.0106812,0.010376,0.0244141,0.0186157,0.00366211,-1.54785,0.0320435,0.504761,0.0238037,0.0195312,0.00152588,0.0115967,0.0112915
6,2,0.0283813,0.00762939,0.0149536,0.0152588,0.00732422,-1.52222,0.0335693,0.818176,0.045166,0.0195312,-0.0186157,-0.00335693,0.00946045
6,3,0.0158691,0.0219727,0.0167847,0.0192261,0.0115967,-1.47675,0.0238037,0.436707,0.0259399,0.0372314,-0.0259399,0.0204468,0.032959
6,4,0.0195312,0.0161743,0.0177002,0.0192261,0.0180054,-1.37024,0.0292969,-0.83374,0.0204468,0.0454712,-0.0289917,-0.00488281,0.0112915
7,0,0.0177002,0.0106812,0.0216675,0.0247192,0.00183105,-1.19873,0.0247192,-0.00457764,0.010376,0.0167847,-0.017395,0.0289917,0.0146484
7,1,-0.0387573,0.0265503,0.0161743,0.039978,0.0198364,-1.21002,0.0262451,-0.032959,0.0192261,0.0131226,-0.0259399,0.0228882,0.0408936
7,2,0.0146484,-0.0250244,0.015564,0.0137329,0.00976562,-0.98999,0.0308228,-0.109253,0.0357056,0.0192261,-0.0265503,0.0357056,0.0213623
7,3,0.0106812,0.0177002,0.0183105,0.00457764,0.0247192,-0.522461,0.0210571,-0.067749,0.022583,0.0222778,-0.0299072,0.0131226,0.0857544
7,4,0.0317383,0.0180054,0.00305176,0.0158691,0.0213623,-0.678406,0.0292969,0.112305,0.0311279,0.0314331,-0.0234985,0.0314331,0.00976562
8,0,0.0250244,-0.0109863,0.0100708,0.0012207,0.0311279,-0.0354004,0.0308228,0.334778,0.0204468,0.0274658,-0.0259399,0.0177002,0.0115967
8,1,0.0491333,0.015564,0.0109863,0.0112915,0.0231934,0.79895,0.0253296,-0.017395,0.0262451,0.0418091,-0.0274658,0.0143433,0.0582886
8,2,0.0201416,0.0177002,0.00854492,0.0186157,0.0320435,2.47559,0.0415039,0.793762,0.0308228,0.0167847,-0.0262451,0.0204468,-0.00915527
8,3,-0.0213623,0.0259399,0.0109863,-0.0210571,0.0375366,3.2489,0.00152588,0.753784,0.0338745,-0.00640869,-0.0158691,0.0259399,-0.0265503
8,4,0.0112915,0.0231934,0.0131226,0.0164795,0.0183105,3.25378,0.0292969,0.386047,0.0564575,0.0415039,-0.0283813,0.0726318,0.00457764
9,0,-0.00396729,0.0265503,0.00823975,0.00762939,0.0192261,3.29529,0.0216675,-0.0341797,0.0360107,0.0222778,-0.0216675,0.027771,-0.00549316
9,1,0.0256348,-0.0158691,0.0564575,0.0137329,0.022583,3.3075,0.0335693,0.302734,0.015564,0.0289917,-0.0247192,0.0302124,0.0149536
9,2,0.0247192,0.0189209,0.0302124,0.0216675,0.0152588,3.31787,0.0146484,0.243225,0.0332642,0.0317383,-0.0271606,0.0265503,0.012207
9,3,0.0323486,0.0189209,-0.00579834,0.0128174,0.0137329,3.32489,0.0311279,-0.103149,0.0244141,0.0418091,-0.0326538,0.0137329,0.0143433
9,4,0.0228882,-0.0323486,0.0234985,0.0222778,0.0183105,3.30627,0.020752,0.407715,0.0241089,0.0216675,-0.0250244,-0.00274658,0.0262451
10,0,0.00274658,0.0231934,0.015564,0.00701904,0.0262451,3.30383,0.0259399,-0.00274658,0.0274658,0.0177002,-0.0253296,0.00305176,0.00640869
10,1,0.00427246,0.00915527,0.0198364,-0.0106812,0.0158691,2.92358,0.0335693,0.0527954,0.0292969,0.0491333,-0.0271606,0.00915527,0.0274658
10,2,0.0216675,-0.00671387,0.0170898,0.0204468,0.0234985,2.67365,0.015564,-0.174561,0.0143433,0.0418091,-0.0283813,0.0323486,0.0241089
10,3,0.027771,0.015564,0.0170898,0.038147,0.00762939,3.23395,0.0463867,-0.10437,0.0268555,0.0387573,-0.0189209,0.0228882,0.0210571
10,4,0.0283813,0.0296021,0.0177002,0.0161743,0.0152588,3.30048,0.017395,0.102539,0.0415039,0.0286865,-0.00610352,0.0213623,0.0256348
11,0,0.0286865,0.0283813,0.0115967,0.0149536,0.0234985,3.29712,0.0195312,-0.0671387,0.0238037,0.0231934,-0.0653076,0.0213623,0.0204468
11,1,0.00335693,0.0115967,0.0137329,0.0308228,0.0238037,3.26294,0.0311279,0.0238037,0.0787354,0.0320435,-0.0289917,-0.0143433,0.0143433
11,2,0.020752,0.0149536,0.0283813,0.0128174,0.0250244,3.15155,0.0363159,-0.249939,0.0271606,0.0326538,-0.0363159,-0.0164795,0.00701904
11,3,0.0314331,0.0344849,0.00518799,0.010376,0.0131226,3.06702,0.0317383,0.288696,0.043335,0.0360107,-0.0311279,0.0186157,-0.0280762
11,4,0.020752,0.0210571,0.0137329,-0.00366211,0.0244141,2.98065,0.0360107,0.389099,0.0411987,0.0375366,-0.0390625,0.0210571,0.012207
12,0,0.0274658,0.0186157,0.0213623,0.0161743,0.0146484,2.91199,0.0131226,0.757446,0.0396729,0.0354004,-0.0335693,0.0274658,0.020752
12,1,0.0161743,0.0112915,0.00183105,0.00488281,0.0192261,2.8479,0.0286865,0.645447,0.0271606,0.027771,-0.00335693,0.0314331,0.0192261
12,2,0.0320435,0.0198364,0.0137329,0.0143433,0.0259399,2.67151,0.0231934,-0.0692749,0.0314331,0.0405884,-0.0311279,0.0158691,0.0216675
12,3,0.0198364,0.0228882,0.027771,0.00701904,0.0323486,2.00623,0.0341797,0.185242,0.0292969,0.0253296,-0.0344849,0.0335693,0.0152588
12,4,0.020752,0.022583,0.0177002,0.00701904,0.0210571,2.20032,0.0216675,-0.0265503,0.0344849,0.0283813,-0.0311279,0.0180054,0.0268555
13,0,-0.00427246,0.0234985,0.00976562,0.0186157,0.0177002,2.63519,0.0912476,-0.0720215,0.0268555,-0.0100708,-0.0268555,0.0271606,0.0262451
13,1,0.0289917,0.017395,0.0128174,0.0283813,0.0186157,2.5238,0.0305176,-0.135803,0.0149536,0.0341797,-0.0186157,0.032959,0.0088501
13,2,0.0280762,0.0231934,0.0164795,0.00976562,0.0296021,2.52716,0.0299072,-0.0012207,0.0372314,0.0274658,0.0164795,0.0222778,0.0115967
13,3,0.0100708,0.027771,0.0143433,0.0119019,0.0152588,2.46826,0.012207,-0.00579834,0.0213623,0.043335,-0.0265503,0.0283813,0.0161743
13,4,0.0222778,0.020752,0.0137329,0.00305176,0.0198364,2.43164,0.0231934,-0.474854,0.039978,0.0421143,-0.0405884,0.027771,-0.0241089
14,0,0.0296021,0.0128174,0.0170898,-0.000915527,0.0210571,2.34802,0.06073,0.519409,0.0280762,0.0543213,-0.039978,0.0378418,0.0186157
14,1,0.0198364,0.0265503,0.012207,0.0286865,0.00518799,1.64642,0.0592041,0.715027,0.0158691,-0.0210571,-0.0192261,0.0268555,0.0253296
14,2,0.0344849,0.0128174,0.0289917,0.0210571,0.00610352,1.01227,0.0271606,0.311279,0.0192261,0.0195312,-0.0344849,0.0323486,0.0186157
14,3,0.0296021,0.0192261,0.0152588,0.0119019,-0.00152588,0.903931,0.0201416,0.191345,0.0256348,0.0415039,-0.0088501,0.0326538,-0.00732422
14,4,0.0161743,0.0268555,0.0332642,0.0250244,-0.0256348,1.19873,0.00549316,0.405273,0.0405884,0.0198364,-0.0228882,0.0231934,0.0128174
15,0,0.0369263,0.0326538,0.0280762,0.0146484,0.0146484,1.23535,0.0177002,0.444336,0.0210571,0.0210571,-0.0247192,0.0311279,0.0219727
15,1,0.0308228,0.0192261,0.0195312,0.0198364,0.0299072,1.28967,0.0219727,-0.0408936,0.0247192,0.0256348,-0.0289917,0.0302124,0.0250244
15,2,-0.000610352,0.0210571,0.0335693,-0.00579834,0.0311279,1.23566,0.0442505,0.351562,0.0286865,0.0360107,-0.0213623,0.038147,-0.0131226
15,3,0.0378418,0.0198364,0.0231934,0.020752,-0.000915527,0.353699,0.0598145,0.455627,0.0271606,0.0482178,-0.0424194,0.0454712,0.0302124
15,4,0.0280762,0.0198364,0.0119019,0.00762939,0.0286865,-0.38269,0.0222778,0.526733,0.0338745,0.0256348,-0.0115967,0.0335693,0.0283813
16,0,0.03479,0.0241089,0.0213623,0.00183105,0.00823975,-1.45691,0.0134277,0.421448,0.10437,0.06073,-0.0326538,0.0128174,0.00732422
16,1,0.0344849,0.0289917,0.0228882,0.012207,0.0299072,-1.87134,0.0201416,0.405579,0.0250244,0.015564,-0.0222778,0.0259399,0.0256348
16,2,0.0326538,0.0292969,0.0149536,0.0198364,-0.0112915,-1.69098,0.015564,-0.0012207,-0.0088501,0.0311279,-0.0286865,0.0488281,0.0265503
16,3,0.0231934,0.0177002,0.0616455,0.017395,0.0170898,-1.43005,0.0320435,-0.507202,0.0219727,0.0234985,-0.0320435,0.0344849,0.00762939
16,4,0.0332642,0.0256348,-0.00854492,0.0198364,0.0259399,-1.44928,0.0161743,0.306702,0.0405884,0.0238037,-0.0299072,0.0726318,0.0292969
17,0,0.020752,0.0354004,0.0393677,0.00457764,0.0183105,-1.38031,0.0161743,-0.179443,0.0247192,0.0241089,-0.0476074,0.0189209,0.022583
17,1,0.0286865,0.0656128,0.0350952,0.0137329,0.0650024,-1.3678,0.00671387,0.0619507,0.0213623,0.055542,-0.0231934,0.0292969,0.0521851
17,2,0.0274658,0.0259399,0.0198364,-0.00854492,0.0250244,-1.30676,0.0189209,-0.0610352,0.0408936,0.032959,-0.0231934,0.012207,0.0265503
17,3,0.0201416,0.032959,0.0183105,0.0088501,0.0314331,-1.2912,0.0280762,0.0012207,0.0299072,0.0323486,-0.0387573,0.0497437,0.0369263
17,4,0.0149536,0.0271606,0.0259399,0.0146484,0.00549316,-1.25732,-0.00152588,-0.0701904,0.0280762,0.0457764,-0.0366211,0.0390625,0.0430298
18,0,0.0393677,0.0283813,0.0228882,0.0161743,0.0012207,-1.57074,0.0106812,-0.472717,0.0357056,0.0479126,-0.0378418,0.0415039,0.0271606
18,1,0.0259399,0.00579834,0.0280762,0.0222778,-0.0247192,-1.62903,0.0186157,0.215759,0.0241089,0.0234985,-0.0366211,0.0375366,0.0262451
18,2,0.00671387,0.0732422,0.0299072,0.0189209,-0.00640869,-1.21918,0.0366211,0.0378418,0.0216675,0.0299072,-0.0271606,0.0256348,0.0228882
18,3,0.0286865,0.0311279,0.012207,0.0216675,0.00946045,-1.21918,0.00518799,-0.157471,0.0360107,0.0274658,-0.0311279,0.0378418,0.0271606
18,4,0.0289917,0.0161743,0.027771,0.0241089,0.0247192,-1.28845,0.0170898,-0.403137,0.0286865,0.0286865,-0.043335,0.0311279,0.0369263
19,0,0.0231934,0.0192261,0.0170898,-0.00701904,0.00640869,-1.38275,0.0119019,-0.325012,0.0146484,-0.0158691,-0.0354004,0.0256348,-0.00701904
19,1,-0.0228882,0.0234985,0.0265503,0.050354,0.0213623,-1.12,0.0198364,-0.195312,0.00274658,0.0234985,-0.0323486,0.0363159,0.0262451
19,2,0.0283813,0.010376,0.0250244,0.0372314,-0.0170898,-1.4679,0.0201416,-0.0689697,0.0259399,0.0143433,-0.0183105,0.0320435,0.0305176
19,3,0.0265503,0.0579834,0.0262451,0.0299072,0.00274658,-1.48102,-0.00549316,-0.0305176,0.0286865,0.043335,-0.0308228,0.0216675,0.0180054
19,4,0.0262451,0.0167847,0.0259399,0.0192261,-0.0262451,-1.22467,0.0134277,-0.0775146,0.00488281,0.0244141,-0.0238037,0.0262451,0.027771
20,0,0.0299072,0.0219727,0.00244141,0.0286865,-0.0198364,-0.976257,0.00854492,-0.0775146,0.03479,0.0268555,-0.027771,0.0231934,0.0210571
20,1,0.0317383,0.0177002,0.0149536,0.00732422,0.017395,-0.768127,0.0354004,-0.0653076,0.0317383,0.0762939,-0.0256348,0.0289917,-0.0274658
20,2,0.0335693,0.0317383,0.0241089,0.0289917,0.0125122,-0.690002,0.0158691,-0.0714111,0.0180054,0.0320435,-0.0350952,0.0378418,0.0164795
20,3,0.0366211,0.0244141,0.0189209,0.0708008,0.0115967,-0.555725,-0.0234985,-0.039978,0.0283813,0.0299072,-0.0341797,0.0323486,0.0286865
20,4,0.010376,0.0405884,0.0280762,0.0396729,0.0167847,-0.450745,0.0256348,-0.782166,0.0177002,0.0302124,-0.0286865,0.0421143,0.0201416
21,0,-0.0170898,0.0317383,0.0323486,0.00183105,0.0119019,-0.404968,0.0518799,-0.379639,0.00457764,0.0726318,-0.0213623,0.0241089,0.0231934
21,1,0.0244141,0.0466919,0.0234985,0.0302124,0.0201416,-0.307007,0.027771,-0.889893,0.0167847,0.0265503,-0.0146484,0.027771,0.0250244
21,2,0.0311279,0.0271606,0.0320435,0.017395,0.0119019,-0.284119,0.0140381,-0.745239,0.0177002,-0.000610352,-0.0231934,0.0280762,0.0213623
21,3,0.0262451,0.0137329,0.0238037,0.0146484,0.0125122,-0.191956,0.0183105,-0.719299,-0.0149536,0.0256348,-0.0350952,0.022583,0.0311279
21,4,0.0457764,0.0338745,0.0357056,0.010376,0.0274658,0.161133,0.0146484,-0.396729,0.0143433,0.0921631,-0.0332642,0.0375366,0.0634766
22,0,0.0335693,-0.00732422,0.0320435,0.012207,-0.0219727,0.160828,0.00701904,-0.59967,0.0128174,0.0454712,-0.022583,0.0469971,0.0369263
22,1,0.0354004,0.0268555,0.0268555,0.0241089,0.0180054,0.135193,0.0183105,-0.799866,0.012207,0.0262451,-0.017395,-0.0201416,0.0289917
22,2,0.0466919,0.0244141,0.027771,0.00915527,0.00274658,0.135193,0.0180054,-0.773926,0.0128174,-0.000305176,-0.0366211,0.0378418,0.00488281
22,3,0.0274658,0.0219727,-0.0274658,0.0323486,0.0143433,0.133972,0.0119019,-0.759277,0.0320435,0.0280762,-0.0180054,0.0238037,0.0415039
22,4,0.0317383,0.0372314,0.0183105,0.0177002,-0.00732422,0.133667,0.0167847,-0.745239,0.0189209,0.0228882,-0.022583,0.0164795,0.0286865
23,0,0.020752,0.0289917,0.0213623,0.0247192,0.00579834,0.149231,-0.00671387,-0.728149,0.0140381,0.0164795,-0.0286865,0.0952148,0.0344849
23,1,0.0247192,0.0231934,0.0238037,0.0228882,0.010376,0.131226,0.0195312,-0.688477,0.0201416,0.0274658,0.00244141,0.0219727,0.0411987
23,2,0.0192261,0.0698853,0.0222778,0.0256348,0.010376,0.126953,0.0164795,-0.693665,0.0106812,0.0274658,-0.0396729,-0.0131226,0.0256348
23,3,0.0424194,0.0283813,0.0247192,0.00549316,0.015564,0.483093,0.00946045,-1.23993,0.0170898,0.027771,-0.062561,0.0372314,0.0299072
23,4,0.0189209,0.0265503,0.0109863,0.0244141,0.0146484,0.710144,0.0161743,-0.815735,-0.0238037,0.010376,-0.038147,0.0817871,0.0305176
24,0,0.032959,0.0354004,0.015564,0.0280762,0.0344849,0.437317,0.00183105,-1.25,0.0167847,0.0222778,-0.039978,0.0268555,0.043335
24,1,-0.0012207,0.0354004,0.0357056,0.0460815,-0.00915527,0.230408,0.0192261,-1.05835,0.0143433,0.0180054,-0.027771,0.0357056,0.0192261
24,2,0.0234985,0.0384521,0.0314331,0.0244141,0.00152588,0.0814819,0.0192261,-0.956421,0.0241089,0.0241089,-0.0280762,0.0210571,0.0204468
24,3,0.039978,0.0469971,0.0234985,0.017395,0.00701904,0.0198364,0.022583,-0.89325,0.022583,0.0161743,-0.0354004,0.0268555,0.043335
24,4,0.0289917,0.0305176,0.0408936,0.00610352,0.0546265,-0.421753,0.0112915,-0.643005,0.00701904,0.0305176,-0.0314331,0.0256348,0.0335693
25,0,0.0289917,0.0305176,0.0305176,0.0167847,0.0210571,-0.902405,0.020752,-0.859375,0.0204468,0.0357056,-0.0314331,0.0372314,0.0241089
25,1,0.0411987,-0.0222778,0.0296021,0.0274658,0.0259399,-1.39496,0.017395,-0.0970459,0.0112915,0.0186157,-0.0466919,0.0405884,0.0387573
25,2,0.017395,0.0344849,0.0167847,0.000915527,0.0308228,-1.53564,0.027771,-0.255737,0.0143433,0.0314331,-0.0231934,0.0238037,0.0332642
25,3,0.0189209,0.0302124,0.0250244,0.039978,0.0308228,-0.986328,0.0152588,-0.223999,0.0228882,0.0250244,-0.0170898,0.0390625,0.0320435
25,4,0.0436401,0.0332642,0.0265503,0.0305176,0.0280762,-0.819397,-0.0115967,-0.237732,0.0167847,0.0289917,-0.0265503,0.0177002,0.0411987
26,0,0.0268555,0.0186157,0.0390625,0.0289917,0.0231934,-0.211487,0.0189209,0.13916,0.0128174,0.0262451,-0.0219727,0.032959,0.0482178
26,1,0.0421143,0.0320435,-0.0421143,0.0259399,0.0167847,0.583496,0.00701904,0.434875,0.0195312,0.0241089,-0.0219727,-0.00671387,0.0308228
26,2,0.0372314,0.0323486,0.0201416,0.0286865,0.00396729,0.916443,0.0640869,0.137024,0.0292969,0.0643921,-0.00518799,0.0146484,0.0750732
26,3,0.0289917,0.0421143,0.0241089,0.0222778,0.0170898,0.898438,0.0222778,0.204163,0.0170898,-0.00305176,-0.0109863,0.0201416,0.0527954
26,4,0.0765991,0.0146484,0.0283813,0.0305176,0.0180054,0.89386,0.017395,0.13855,-0.00305176,0.0219727,-0.0234985,0.00976562,0.027771
27,0,0.062561,0.039978,0.0244141,0.0531006,0.0518799,0.851746,0.0177002,0.134583,0.0164795,0.022583,-0.0396729,0.0244141,0.0292969
27,1,0.0332642,0.0198364,0.0231934,0.0317383,0.0283813,0.829773,0.0335693,0.142212,0.0262451,0.0204468,-0.0241089,0.0259399,0.0436401
27,2,0.0317383,0.0341797,0.0302124,0.0201416,0.0180054,0.753479,0.0201416,0.127869,0.0250244,-0.000305176,-0.0280762,0.0375366,0.0201416
27,3,0.0442505,0.0219727,0.0418091,0.0344849,0.0292969,0.794983,0.0109863,0.151672,0.0143433,0.0213623,-0.0561523,0.0317383,0.0195312
27,4,0.0161743,0.0106812,0.0317383,0.0421143,0.071106,1.21185,0.027771,-0.978699,0.0119019,0.0320435,-0.032959,0.0201416,0.0393677
28,0,0.0231934,0.0430298,0.0323486,0.0201416,0.0244141,0.315552,-0.0219727,-0.497437,0.0259399,0.0765991,-0.0418091,0.0137329,-0.00701904
28,1,0.0430298,0.0183105,0.0308228,0.0253296,0.0198364,-0.245972,0.0106812,-0.328369,0.0204468,0.0088501,-0.0265503,0.0265503,0.0320435
28,2,0.0314331,-0.0183105,0.0363159,0.0344849,0.0308228,-1.30005,0.00762939,-0.596924,0.0088501,0.0152588,-0.0201416,0.0357056,0.0164795
28,3,0.0317383,0.0354004,0.0463867,0.0228882,0.0152588,-1.19598,0.00610352,-0.916138,-0.045166,0.0161743,-0.032959,0.0671387,0.03479
28,4,0.027771,0.0146484,0.0195312,0.0280762,0.0271606,-1.0556,0.00701904,-0.852661,0.0167847,0.0167847,0.0100708,0.0259399,0.0393677
29,0,0.032959,0.0213623,0.0476074,0.0161743,0.0308228,-0.802307,0.0231934,-1.34827,0.0201416,0.0161743,-0.0305176,0.0204468,0.0289917
29,1,0.0418091,0.0360107,0.0305176,0.0296021,0.0326538,-0.704651,-0.00305176,-1.92108,0.00335693,0.0140381,-0.0164795,0.0012207,0.0350952
29,2,0.0137329,0.0247192,-0.0119019,0.0421143,0.0308228,0.854797,0.0192261,-1.19843,0.0338745,0.0149536,-0.00915527,0.0115967,0.0430298
29,3,0.0268555,0.0460815,0.032959,0.0402832,0.020752,1.54114,0.0296021,-0.716553,0.0109863,0.0210571,-0.0198364,0.0167847,0.0515747
29,4,0.0350952,0.0088501,0.0448608,0.0366211,0.0299072,0.114746,0.00335693,-1.17432,0.0198364,0.0210571,-0.0289917,0.0811768,0.0415039
30,0,0.022583,0.0463867,0.0418091,0.0210571,0.0765991,-0.0238037,0.00793457,-0.895691,0.0219727,0.0195312,-0.0494385,0.0241089,0.027771
30,1,0.0302124,0.0289917,0.0332642,0.0360107,0.0338745,0.71228,0.0189209,-0.63324,-0.0640869,0.00457764,-0.0271606,-0.0274658,0.0521851
30,2,0.0247192,0.0268555,0.0341797,0.0274658,0.0265503,0.779114,0.0259399,-0.872498,0.000610352,0.0183105,-0.0238037,0.0357056,0.0292969
30,3,0.0222778,0.0332642,0.0299072,0.0439453,0.0982666,1.32202,0.0253296,-1.3739,0.00640869,0.0088501,-0.03479,0.0280762,0.0338745
30,4,0.0271606,0.0250244,0.0457764,0.0280762,0.03479,1.29211,0.0170898,-0.482178,0.0216675,0.0396729,-0.0201416,0.0256348,0.0204468
31,0,0.0149536,0.0222778,0.0161743,0.0262451,0.0222778,1.29822,0.0112915,-0.67688,0.0216675,0.0210571,-0.00976562,0.0482178,0.0241089
31,1,0.0192261,0.0366211,0.0210571,0.0311279,-0.0198364,1.22223,0.017395,-0.727844,0.0109863,0.017395,-0.0289917,0.0271606,0.0323486
31,2,0.027771,0.00915527,0.0305176,0.032959,0.0299072,1.50665,0.00396729,-0.43396,0.0088501,-0.0088501,-0.0292969,0.0332642,0.0350952
31,3,-0.015564,0.0430298,0.0335693,-0.00396729,0.0357056,1.15265,0.0241089,-0.376282,0.0305176,0.0292969,-0.0228882,0.0201416,0.0445557
31,4,0.0183105,0.0198364,0.0271606,0.0262451,0.032959,1.05225,0.0131226,0.022583,0.0128174,0.0192261,-0.0231934,0.0305176,0.0308228
32,0,0.0256348,0.0228882,0.0567627,0.0234985,0.0326538,1.35712,0.0363159,-0.370178,0.0521851,0.0146484,-0.015564,0.0320435,0.0326538
32,1,0.0201416,0.0186157,0.0259399,0.0204468,0.0418091,0.910034,0.012207,0.657959,0.00762939,0.0195312,-0.0262451,0.0390625,0.0244141
32,2,0.0259399,0.0219727,0.0204468,0.022583,0.0213623,0.188599,0.022583,0.992432,0.0259399,0.0228882,-0.0302124,-0.0280762,0.0421143
32,3,0.0289917,0.0250244,0.022583,0.032959,0.0253296,-0.768127,0.00793457,1.46179,0.0143433,0.0134277,-0.0204468,0.0271606,0.00366211
32,4,0.0195312,0.0167847,0.0344849,0.0323486,0.0253296,-1.05591,0.0213623,1.75781,0.00610352,-0.0283813,-0.0326538,0.0311279,0.108337
33,0,0.020752,0.0219727,0.0299072,0.0341797,0.0396729,-1.36353,0.0250244,2.35901,0.022583,0.0131226,-0.0314331,0.0283813,0.0311279
33,1,-0.0238037,0.0283813,0.0354004,0.0244141,0.0375366,-1.5274,0.0540161,2.74567,0.0219727,0.0299072,-0.00823975,0.0271606,0.0387573
33,2,0.027771,0.00671387,0.0244141,0.03479,-0.0183105,-1.71295,0.0259399,1.84814,0.00305176,0.0125122,-0.0204468,0.0216675,0.0250244
33,3,0.0234985,0.0292969,0.0189209,0.0457764,0.0497437,-1.93481,0.0466919,0.996704,0.00183105,-0.0219727,-0.0167847,0.0253296,0.0411987
33,4,0.00610352,0.0210571,-0.0140381,0.0509644,0.0305176,-1.36322,0.0369263,0.0262451,0.0469971,0.000610352,-0.0228882,0.0482178,0.03479
34,0,0.0177002,0.0283813,0.0439453,0.0454712,0.0375366,-1.74774,0.00946045,-0.222778,0.00732422,0.0234985,-0.0198364,0.017395,0.000305176
34,1,0.0192261,0.0189209,0.0241089,0.0408936,0.0552368,-2.00043,0.0210571,-0.395813,0.0134277,-0.022583,-0.0323486,0.0146484,0.0183105
34,2,0.0265503,0.0238037,0.0268555,0.0152588,0.0360107,-3.18054,0.0396729,-0.523682,0.00427246,0.0363159,-0.0213623,0.0183105,0.0317383
34,3,0.020752,0.00732422,0.0106812,0.03479,0.0280762,-3.19244,0.0244141,-0.798035,0.0219727,0.0128174,-0.0140381,0.0201416,0.0231934
34,4,0.0262451,0.022583,0.0842285,0.0454712,0.0259399,-3.12836,0.0268555,-1.54877,0.0622559,0.0134277,-0.0238037,0.020752,0.0372314
35,0,0.0238037,0.0186157,0.0271606,0.0149536,0.0268555,-3.17749,-0.00274658,-0.805054,0.0234985,0.0216675,-0.015564,0.0384521,0.0286865
35,1,0.012207,0.0262451,0.0253296,0.0299072,0.0271606,-3.13202,0.0219727,-1.10352,0.0146484,0.00946045,-0.0161743,0.0320435,0.0250244
35,2,0.0265503,0.0201416,-0.0158691,0.0378418,0.0146484,-3.09814,0.0341797,-0.830078,-0.0402832,0.0241089,-0.0219727,0.0228882,0.0338745
35,3,0.0317383,0.0204468,0.0292969,0.0231934,0.0323486,-2.99438,-0.00793457,-0.717468,0.0186157,0.0216675,-0.0201416,0.0463867,0.0262451
35,4,0.0170898,0.0234985,0.038147,0.032959,0.0344849,-2.92267,0.0170898,-0.135193,0.0164795,0.0231934,-0.0100708,0.00793457,0.0210571
36,0,0.0234985,0.0134277,0.0201416,0.0350952,0.0112915,-2.85706,0.0296021,0.213928,0.0582886,-0.000610352,-0.00305176,0.0314331,0.0332642
36,1,-0.0332642,0.0292969,0.0247192,0.0817871,0.0292969,-2.78229,0.0411987,0.0564575,0.00762939,-0.0363159,0.0128174,0.0289917,0.0125122
36,2,0.0259399,0.0299072,0.0323486,0.0256348,0.038147,-2.71667,0.0161743,0.0646973,0.0622559,0.0244141,-0.0195312,-0.020752,0.0164795
36,3,0.0112915,0.0314331,0.0222778,0.0323486,0.0292969,-2.65472,-0.00427246,0.0485229,0.00396729,0.0222778,-0.017395,0.0201416,0.0128174
36,4,0.017395,0.0286865,0.0161743,0.0479126,0.0366211,-2.59338,0.0515747,0.062561,0.00610352,-0.00213623,0.0286865,0.015564,0.0164795
37,0,0.0189209,0.017395,0.0405884,0.0219727,0.0418091,-2.54822,0.0363159,0.0671387,-0.00793457,0.0186157,-0.020752,0.00579834,0.0128174
37,1,0.0128174,0.00701904,0.0219727,0.0286865,0.0421143,-2.47223,0.0344849,0.0741577,0.00854492,0.0100708,-0.0210571,0.0088501,0.0213623
37,2,0.0247192,0.017395,0.0320435,0.0292969,0.0296021,-2.4115,0.0473022,0.0613403,0.0100708,0.022583,-0.0238037,-0.0308228,-0.000915527
37,3,0.022583,0.0146484,0.0292969,0.0363159,0.0384521,-1.46912,0.0231934,-0.708618,-0.0189209,0.010376,-0.00701904,0.00946045,0.0778198
37,4,0.0210571,-0.0170898,0.0204468,0.0439453,0.0241089,-0.391541,0.0338745,-0.368958,0.0131226,0.00579834,-0.0228882,0.0198364,0.0231934
38,0,0.0137329,0.0195312,0.0158691,0.00762939,0.0421143,-0.409241,0.0213623,-0.590515,0.0158691,0.0326538,0.0210571,0.0161743,0.0137329
38,1,0.0109863,0.00549316,0.0170898,0.032959,0.0204468,0.296936,0.0296021,-0.621033,0.0189209,0.0146484,0.017395,-0.0012207,0.00640869
38,2,-0.00640869,0.0305176,0.0238037,0.0289917,0.0177002,0.722656,0.0280762,-0.804443,0.0219727,0.00854492,-0.00366211,0.0247192,0.0332642
38,3,0.0143433,-0.0164795,0.0302124,0.0296021,-0.0302124,1.13464,0.0170898,-0.686646,0.0115967,-0.00427246,-0.0140381,0.0170898,0.0222778
38,4,0.0186157,0.0253296,0.012207,0.022583,0.0234985,1.82465,0.03479,-0.731812,0.0143433,0.0186157,-0.0195312,0.0357056,0.0216675
39,0,-0.0143433,0.0170898,0.0320435,-0.0134277,0.0335693,1.87897,0.0140381,-0.638428,0.0146484,0.0158691,-0.00976562,0.0186157,0.0222778
39,1,0.0161743,0.0198364,0.0378418,0.0234985,0.022583,1.83746,0.0222778,-0.628052,0.00793457,0.00579834,-0.0088501,0.0210571,0.00610352
39,2,0.0161743,0.00152588,0.0201416,0.0244141,0.0360107,1.80084,0.0299072,-0.613403,0.0088501,0.0119019,-0.0506592,0.0213623,0.0192261
39,3,0.0192261,0.0161743,0.0234985,0.0411987,0.0302124,1.74713,0.0390625,-0.608826,0.0201416,0.000305176,-0.0140381,0.0332642,0.017395
39,4,0.00946045,0.0231934,0.00793457,0.0183105,0.0369263,1.69617,0.0106812,-0.585938,0.0231934,0.0637817,-0.0204468,0.00793457,0.0637817
40,0,0.0134277,0.010376,0.0222778,0.0375366,0.039978,1.66138,-0.0180054,-0.58197,0.0210571,0.0201416,-0.0213623,0.017395,0.022583
40,1,0.0112915,0.0100708,0.0112915,-0.00274658,0.0317383,1.62537,0.0457764,-0.560913,0.0170898,0.0405884,-0.0143433,0.0198364,0.00213623
40,2,0.0234985,-0.00457764,0.0259399,0.0250244,0.0741577,1.76788,0.0234985,-0.653381,0.015564,0.0228882,-0.0186157,0.00549316,0.0369263
40,3,0.017395,0.0430298,0.0192261,0.0326538,0.0305176,1.15173,0.015564,0.0140381,0.0115967,0.0778198,-0.0259399,-0.0234985,0.0408936
40,4,0.0244141,0.0177002,0.0234985,0.0326538,0.0692749,0.596313,0.0274658,-0.165405,0.0299072,0.010376,-0.0344849,0.0137329,0.0332642
41,0,0.0296021,0.0115967,0.0286865,0.00579834,0.0228882,0.148926,0.0323486,-0.115662,0.0570679,0.027771,-0.0292969,-0.000610352,0.0219727
41,1,0.0106812,0.000305176,0.00457764,0.0228882,0.0292969,-0.168762,0.0286865,-0.489502,0.0164795,0.00579834,-0.0180054,0.038147,0.0134277
41,2,0.0579834,0.0158691,0.0152588,-0.0445557,0.0201416,-0.0357056,0.0506592,-0.421753,0.0259399,0.0198364,0.0308228,0.0146484,0.020752
41,3,0.0192261,0.0100708,0.0164795,0.0387573,0.043335,0.942078,-0.000305176,-0.445251,0.0256348,0.0192261,-0.0152588,0.012207,0.00488281
41,4,0.0204468,0.00793457,0.0112915,0.0262451,0.0262451,1.16089,0.0335693,-0.865173,0.0405884,0.00946045,-0.00427246,0.0140381,0.0161743
42,0,0.0149536,0.0128174,0.0244141,0.0305176,0.0247192,1.04736,0.0418091,0.017395,0.00396729,-0.00305176,-0.0247192,0.0469971,0.017395
42,1,0.00549316,-0.038147,0.0088501,0.0238037,-0.00579834,1.11694,0.0588989,0.187378,0.020752,0.00396729,-0.0119019,0.0256348,0.000305176
42,2,0.0299072,0.0170898,0.00823975,0.0201416,0.0274658,1.05865,0.027771,0.370789,-0.0204468,0.00579834,-0.0198364,-0.0213623,0.0238037
42,3,0.0119019,0.0115967,0.0231934,0.0289917,0.0158691,1.0141,0.0372314,0.116577,0.0289917,0.0204468,0.0146484,0.0115967,0.00915527
42,4,0.010376,0.00640869,0.0756836,0.0314331,0.0204468,1.03821,0.0320435,0.28595,0.0384521,0.010376,-0.0134277,0.00518799,0.00579834
43,0,0.0143433,0.010376,0.0482178,0.022583,0.0262451,1.02844,0.0186157,0.420837,0.0521851,0.00854492,-0.0134277,0.0592041,0.00244141
43,1,0.0241089,0.000915527,0.0250244,0.0210571,-0.00518799,0.970764,0.0289917,0.274048,0.0250244,0.0195312,-0.00244141,0.0131226,0.00610352
43,2,-0.00396729,0.0204468,0.0161743,-0.0164795,0.0274658,0.965881,0.0305176,1.02448,0.0271606,0.0109863,-0.012207,0.00183105,0.0119019
43,3,0.0115967,0.0192261,0.0140381,0.0286865,0.0253296,0.942688,0.0332642,0.978699,0.0827026,0.0115967,-0.0158691,0.0411987,0.0088501
43,4,0.010376,0.0125122,0.0280762,0.0192261,0.0262451,0.91156,0.032959,1.01471,0.0213623,0.0143433,-0.020752,0.0219727,0.0100708
44,0,0.0158691,0.00518799,0.00732422,0.0384521,0.0292969,0.889587,0.0387573,0.85022,0.0216675,0.0134277,-0.0231934,0.000915527,0.00823975
44,1,0.00732422,0.0112915,0.000610352,0.0164795,0.0750732,0.874329,0.0183105,0.638428,0.0216675,0.00976562,-0.0488281,0.010376,0.0180054
44,2,0.0161743,-0.0152588,0.0164795,0.0308228,0.0247192,0.834961,0.0292969,0.511169,0.00732422,0.0231934,-0.0170898,0.0250244,0.00579834
44,3,0.000610352,0.015564,0.0204468,0.0167847,0.0289917,-0.341797,0.0332642,0.201721,0.0231934,0.0143433,-0.0222778,0.00976562,0.0183105
44,4,0.0128174,0.00213623,0.0204468,0.0100708,0.0216675,-1.62628,0.0326538,0.969238,0.0228882,0.0537109,-0.0149536,0.0231934,-0.00915527
45,0,0.0283813,0.020752,-0.0360107,0.0283813,0.0344849,-1.45386,0.0427246,0.955505,0.0427246,0.00396729,-0.0216675,-0.0128174,0.0482178
45,1,0.010376,0.0256348,0.0259399,0.00732422,0.0146484,-1.15509,0.0289917,1.06812,0.0311279,0.0128174,-0.0128174,0.0250244,0.0198364
45,2,0.00762939,0.015564,0.0204468,0.0247192,0.0289917,-0.583191,0.0311279,0.967407,0.0393677,0.0100708,-0.0216675,0.0204468,0.0198364
45,3,0.0100708,0.00610352,0.0131226,0.0152588,0.0747681,0.146179,0.0372314,0.992737,0.0308228,0.00915527,-0.0198364,0.0186157,0.0195312
45,4,0.022583,0.0125122,0.0231934,0.0115967,-0.00335693,0.448303,0.0292969,0.560608,0.020752,0.0140381,0.00366211,0.00549316,0.00915527
46,0,0.0222778,0.00244141,0.0149536,0.0152588,0.0283813,0.513,0.0439453,-0.0665283,0.0457764,0.0183105,-0.0115967,0.012207,0.0131226
46,1,-0.00427246,0.0158691,0.012207,0.0598145,0.0283813,0.556335,0.0695801,0.552063,0.0280762,-0.0421143,-0.0265503,0.012207,0.0650024
46,2,0.0134277,0.0259399,0.00640869,0.0152588,0.0109863,0.660095,0.0320435,0.531311,0.039978,0.0177002,-0.027771,-0.0415039,0.0195312
46,3,-0.00701904,0.00457764,0.0112915,0.020752,0.0189209,0.592957,-0.022583,0.286865,0.0292969,0.0604248,-0.0189209,0.0170898,0.015564
46,4,-0.0350952,0.010376,0.0308228,-0.0131226,0.0320435,1.07544,0.0332642,0.0927734,0.022583,0.0262451,-0.0210571,0.00518799,0.0119019
47,0,-0.017395,0.0177002,0.0125122,0.00366211,0.0323486,0.326843,-0.022583,0.445862,0.0317383,0.0244141,-0.0238037,0.0140381,0.0170898
47,1,0.00701904,0.0161743,0.0238037,0.0601196,0.0332642,0.218201,0.0463867,0.36377,0.0244141,0.0662231,-0.0152588,0.0241089,0.0796509
47,2,0.0253296,0.00823975,0.0250244,0.00823975,0.0177002,0.266418,0.0164795,-0.104675,0.0262451,0.00915527,-0.0250244,0.0219727,0.0390625
47,3,0.0161743,-0.0323486,0.00427246,0.0238037,0.0317383,0.229797,0.0265503,0.326843,0.00854492,0.0125122,-0.0256348,0.067749,0.0161743
47,4,0.00305176,0.0189209,0.012207,0.0296021,0.020752,-0.1651,-0.0119019,0.0698853,0.0213623,-0.0482178,-0.0204468,0.0204468,-0.0167847
48,0,0.0112915,0.0143433,0.0146484,0.0210571,0.0387573,-0.159302,0.0418091,-0.0137329,0.0250244,-0.00213623,-0.0115967,0.0109863,-0.00244141
48,1,0.0219727,0.000305176,0.0289917,0.0219727,0.0213623,-0.239868,0.0210571,-0.072937,-0.0357056,0.0250244,-0.0201416,-0.0567627,0.00762939
48,2,0.00488281,0.00152588,0.00335693,0.0140381,0.0170898,-0.0921631,0.0253296,-0.591431,0.0164795,0.0143433,-0.0210571,0.0140381,0.0234985
48,3,0.0119019,0.0177002,0.03479,0.0125122,0.0238037,-0.524597,0.0274658,-0.491028,0.0195312,0.0152588,-0.0180054,0.0112915,0.015564
48,4,0.0213623,0.0216675,0.0183105,0.0192261,0.0354004,-1.72577,0.0259399,-0.760498,0.0320435,0.0234985,-0.0265503,0.00671387,0.0262451
49,0,0.00366211,0.0283813,0.0125122,0.0241089,0.0231934,0.357056,0.0283813,0.0497437,0.0842285,0.017395,-0.0274658,-0.0515747,0.0195312
49,1,-0.0341797,0.0250244,0.0137329,0.0213623,0.0280762,1.11298,0.03479,0.139771,0.0137329,0.00305176,-0.0238037,0.0222778,0.0137329
49,2,0.0119019,0.0427246,0.00152588,0.0189209,0.0152588,1.22894,0.0256348,-0.0637817,0.0262451,0.00610352,-0.0265503,0.0213623,0.00488281
49,3,0.00518799,0.0299072,0.00366211,-0.00396729,0.0164795,2.11792,0.032959,0.188904,0.0241089,0.00762939,-0.0134277,0.0186157,0.00793457
49,4,0.0167847,0.020752,0.0720215,0.0140381,0.017395,0.745544,0.0305176,0.496521,0.0204468,0.00213623,-0.020752,0.000305176,0.0149536
50,0,-0.00183105,0,0.0619507,0.0210571,0.017395,0.523071,0.0323486,0.349426,0.00854492,0.0137329,-0.0134277,0.0244141,0.0143433
50,1,0.00671387,0.0012207,0.00701904,0.0595093,0.015564,0.84137,0.0231934,-0.26825,0.03479,0.00762939,-0.0186157,0.00762939,0.0152588
50,2,0.0250244,0.0088501,0.0323486,0.0146484,-0.0137329,-0.568848,0.0268555,0.321045,0.0256348,0.0296021,-0.0180054,0.015564,0.0192261
50,3,0.00640869,0.0305176,0.00671387,0.0137329,0.0189209,-0.478516,0.0393677,-0.240173,0.0320435,0.0170898,-0.0158691,0.0161743,0.0109863
50,4,0.0164795,-0.0100708,0.0170898,0.0112915,0.0717163,-0.434265,0.0280762,-0.108337,0.0140381,0.0177002,-0.0387573,0.0109863,0.00732422
51,0,0.015564,0.0311279,0.00762939,0.010376,0.0158691,-0.214539,0.0317383,0.141296,0.0323486,0.0115967,-0.0204468,0.0335693,-0.0109863
51,1,0.022583,-0.0302124,0.0146484,0.00305176,-0.0335693,-0.382996,0.0308228,0.573425,0.0262451,0.022583,-0.0372314,0.00671387,0.0219727
51,2,0.0286865,-0.00366211,0.00549316,-0.00549316,0.0234985,-0.446472,0.0247192,0.47821,0.0146484,0.0186157,-0.0332642,0.0167847,0.0167847
51,3,-0.0158691,0.0134277,0.00579834,0.017395,0.0112915,-0.0219727,0.0286865,0.00305176,0.0320435,0.0189209,-0.0234985,0.0219727,0.0250244
51,4,0.015564,0.0415039,0.00183105,-0.00244141,0.0454712,-0.125427,0.0396729,0.274353,0.0384521,0.0460815,-0.0241089,0.0189209,0.0146484
52,0,0.0360107,0.0183105,-0.00183105,-0.0146484,-0.00305176,-0.724792,0.0222778,-0.107117,0.03479,0.0317383,-0.0280762,0.0149536,0.00823975
52,1,0.010376,0.0128174,0.0128174,0.0167847,0.0375366,-0.804749,0.03479,-0.353394,0.0344849,0.0302124,-0.0314331,0.0418091,0.00671387
52,2,0.0192261,0.0119019,0.00396729,-0.0268555,0.00488281,-0.387878,0.0238037,-0.626831,0.0210571,-0.0100708,-0.00701904,0.0167847,0.0234985
52,3,0.000610352,0.0305176,0.0161743,0.0186157,0.0119019,-0.334167,0.0515747,-0.293884,0.0265503,0.0299072,-0.0308228,0.0210571,0.0128174
52,4,-0.00152588,0.0195312,0.0167847,0.00610352,0.00183105,-0.215759,0.0192261,-0.742188,0.0119019,0.0390625,-0.0204468,0.0177002,0.0167847
53,0,0.0280762,0.0213623,0.0198364,0.0271606,-0.0100708,1.05804,0.0238037,-0.497131,0.0265503,0.0372314,-0.020752,0.0314331,0.0106812
53,1,0.0244141,0.020752,0.0256348,-0.010376,0.00701904,2.45331,0.000915527,0.293274,0.0366211,0.142517,-0.0164795,0.0164795,0.0811768
53,2,0.0311279,0.0106812,0.0119019,0.0231934,0.0161743,2.36572,0.0198364,0.23407,0.072937,0.0271606,-0.0323486,0.0180054,0.0219727
53,3,0.0183105,0.0210571,0.0201416,-0.00305176,0.0161743,1.96381,0.0378418,0.346069,0.0448608,0.0692749,-0.0354004,0.0189209,0.0723267
53,4,0.0198364,0.0112915,0.0115967,0.00549316,0.0128174,1.58783,0.0341797,0.827942,0.0424194,0.0671387,-0.0268555,0.00366211,-0.00671387
54,0,-0.0125122,0.00946045,0.00610352,0.0796509,0.0125122,1.44257,-0.0393677,1.10992,0.0128174,0.0888062,-0.0286865,0.0177002,0.0167847
54,1,-0.0253296,0.00946045,0.0140381,0.0610352,0.0146484,1.74042,0.0213623,0.992432,0.0259399,0.062561,-0.0289917,0.0186157,0.0177002
54,2,0.0189209,-0.0289917,0.0115967,0.0100708,0.0546265,1.56799,0.017395,-0.0842285,0.0357056,0.057373,-0.0408936,0.0231934,0.00732422
54,3,0.0106812,0.0393677,-0.0012207,0.0088501,0.0302124,1.09344,0.022583,0.380249,0.0601196,0.0665283,-0.0341797,-0.0408936,0.0189209
54,4,0.0314331,0.012207,0.0088501,-0.00427246,0.0183105,-0.195312,0.0143433,-0.151367,0.039978,0.0704956,-0.0387573,0.0292969,0.0149536
55,0,0.0222778,0.0131226,-0.0439453,0.0161743,0.0177002,-0.131531,0.0274658,0,0.0427246,0.071106,-0.0341797,0.0210571,0.0262451
55,1,0.0216675,0.0161743,0.00488281,0.00579834,0.0131226,0.98938,0.0283813,-0.393677,0.0393677,0.0994873,-0.0350952,0.0186157,0.0283813
55,2,0.0149536,0.0201416,-0.0311279,0.000610352,0.0180054,0.919189,0.0262451,-0.0787354,0.0457764,0.0631714,-0.0311279,0.0128174,0.017395
55,3,0.0234985,0.0219727,0.010376,0.0106812,0.0268555,0.231018,0.0250244,-0.0900269,0.0149536,0.0698853,-0.0271606,0.032959,0.032959
55,4,0.0369263,0.0656128,0.0271606,0.0143433,0.0292969,-0.803528,0.0180054,-1.1319,0.0372314,0.0878906,-0.0341797,0.0283813,0.0106812
56,0,0.0271606,0.0131226,0.020752,-0.00823975,-0.017395,-0.762329,0.032959,-0.586548,0.0372314,0.0909424,0.020752,0.0161743,0.0201416
56,1,0.0332642,0.0161743,0.0250244,0.0106812,0.0149536,-1.06476,0.0198364,-1.02448,0.039978,0.0610352,-0.0317383,0.0234985,0.0326538
56,2,0.0357056,0.0180054,0.00579834,-0.0448608,-0.00335693,-0.986633,0.0338745,-1.25854,0.0366211,0.119629,0.00457764,0.0253296,0.00640869
56,3,0.0289917,0.0262451,0.00610352,-0.00610352,-0.00701904,-0.907898,0.0216675,-1.06781,0.0448608,0.0680542,-0.0253296,0.0299072,0.0198364
56,4,0.0323486,0.027771,0.020752,0.0152588,0.0186157,-1.38702,0.0250244,-1.02386,0.0540161,0.0411987,-0.0317383,0.0164795,0.0366211
57,0,0.0219727,0.0506592,0.0183105,0.0201416,0.0195312,-1.25244,0.0143433,-1.58112,0.0308228,0.0576782,-0.0354004,0.0305176,0.0112915
57,1,0.0390625,0.0219727,0.0106812,-0.00335693,0.00793457,-1.12518,0.00976562,-1.78558,0.0415039,0.0543213,-0.0198364,0.0366211,0.0262451
57,2,0.0439453,0.012207,0.0186157,0.0134277,-0.0012207,-1.08612,0.0164795,-1.21704,0.0390625,0.0540161,-0.00823975,0.015564,0.0289917
57,3,-0.00183105,0.0152588,0.0210571,0.0311279,-0.00274658,-1.06323,0.0567627,-1.63452,0.0332642,0.0430298,-0.0238037,0.0134277,0.0265503
57,4,0.0387573,0.0170898,0.0158691,0.015564,-0.00213623,-1.04279,0.0140381,-1.59393,0.0390625,0.0088501,-0.0631714,0.0308228,0.0302124
58,0,0.0387573,0.0143433,0.0183105,0.0131226,0.0112915,-1.01074,0.0180054,-1.41937,0.0305176,0.0265503,-0.0320435,0.0299072,0.0335693
58,1,0.0387573,0.0183105,0.00183105,0.0201416,-0.0317383,-0.982361,0.0320435,-0.781555,0.03479,0.0314331,-0.0192261,0.0296021,0.0125122
58,2,0.0241089,0.0662231,0.0335693,0.0244141,0.0195312,-0.951843,0.0198364,-1.36383,0.0265503,0.0238037,-0.0283813,0.0787354,0.0201416
58,3,0.0375366,0.0128174,0.0164795,0.00823975,0.0100708,-0.937805,0.0170898,-1.25214,0.0445557,0.0210571,-0.0198364,0.039978,0.0363159
58,4,0.010376,0.0140381,0.012207,-0.00854492,0.015564,-0.908508,0.0619507,-0.899658,0.0308228,-0.0180054,-0.0250244,0.0241089,0.0698853
59,0,0.0164795,0.0213623,0.0213623,-0.00213623,0.00976562,-0.9021,0.012207,-0.84259,0.0305176,0.0344849,-0.0283813,0.0323486,0.0387573
59,1,-0.0317383,0.00183105,0.0106812,0.0634766,0.0280762,-0.858154,0.0167847,-0.881348,0.0210571,0.0152588,-0.0341797,0.0366211,0.0305176
59,2,0.0198364,0.0195312,0.0201416,0.0308228,0.0119019,-0.842896,0.0192261,-1.10443,0.0430298,0.0201416,-0.00427246,0.0317383,0.0299072
59,3,0.0756836,0.0354004,0.0299072,-0.00854492,0.0231934,-0.8255,-0.0216675,-1.22467,0.0189209,0.0588989,-0.0250244,0.0253296,0.00335693
59,4,0.0366211,0.0219727,0.0164795,0.0268555,0.00640869,-0.812683,0.0244141,-0.839539,0.0283813,0.0167847,-0.0442505,0.0543213,0.027771
60,0,0.0286865,0.0265503,0.022583,0.0170898,0.0119019,-0.388184,0.012207,-0.819702,0.0299072,0.0210571,-0.0216675,0.0244141,0.0109863
60,1,0.0292969,0.0292969,0.083313,0.022583,0.00823975,0.0915527,0.0280762,-0.190125,0.0158691,0.0115967,-0.0271606,0.0210571,0.0363159
60,2,0.0314331,0.0408936,0.0143433,-0.00762939,0.000610352,0.0869751,-0.0201416,-0.394897,0.0213623,-0.0338745,-0.0314331,0.00915527,0.0338745
60,3,0.0390625,0.0149536,0.0186157,0.0213623,0.0253296,-0.0222778,0.0134277,-0.50293,0.0296021,0.0112915,-0.0332642,0.0234985,0.0244141
60,4,0.0320435,0.0320435,0.0167847,0.0216675,0.0100708,-0.102234,0.0289917,-0.9375,-0.0259399,-0.000610352,-0.0302124,0.0299072,0.0289917
61,0,0.0393677,0.0402832,0.0158691,-0.0186157,0.00610352,0.0469971,0.00579834,-1.05988,0.0234985,0.00488281,-0.0338745,0.0186157,0.0292969
61,1,0.0473022,0.0302124,0.0265503,0.0308228,0.00396729,0.184631,0.015564,-0.848999,0.0143433,0.00549316,-0.0421143,0.020752,-0.0100708
61,2,0.0305176,0.0323486,-0.0180054,0.0164795,0.00762939,1.07819,0.0323486,-1.16821,0.0402832,0.0131226,-0.043335,0.0460815,0.0265503
61,3,0.0268555,0.0292969,0.0244141,0.0262451,0.0222778,1.26434,0.0134277,0.0497437,0.010376,-0.00305176,-0.032959,0.0396729,0.0436401
61,4,0.0234985,-0.00183105,0.0201416,0.0183105,-0.0360107,1.18988,0.0387573,-0.0708008,0.0280762,-0.00488281,-0.0305176,0.0177002,0.0302124
62,0,0.0485229,0.0253296,0.0210571,0.0216675,0.00366211,1.1322,0.0164795,0.17395,-0.0222778,0.0161743,-0.0268555,0.0527954,0.0177002
62,1,0.0558472,0.0201416,0.0332642,-0.0219727,-0.00823975,1.02142,0.0244141,0.408325,0.0213623,0.0219727,-0.0415039,0.0308228,0.0283813
62,2,0.0363159,0.0189209,0.027771,0.0210571,0.0183105,0.901489,0.0201416,0.487671,0.0469971,0.00488281,-0.0332642,-0.0332642,0.0286865
62,3,0.03479,0.0344849,0.0158691,0.0161743,0.0128174,0.44281,0.0231934,-0.131531,-0.00366211,0.0286865,-0.0299072,0.0408936,0.0546265
62,4,0.0497437,0.0128174,0.0189209,0.0140381,0.0115967,0.295105,0.0210571,-0.299683,0.0146484,0.00732422,-0.0485229,0.020752,0.038147
63,0,0.0357056,0.0292969,0.00732422,0.0158691,0.0198364,0.151978,0.0189209,0.874329,0.0106812,0.0152588,-0.0222778,0.0219727,0.0323486
63,1,0.0305176,0.0445557,0.0244141,0.0128174,0.0201416,0.157776,0.0372314,0.805969,0.0177002,0.00579834,-0.0323486,0.0259399,0.0335693
63,2,0.0265503,0.0305176,0.0125122,0.0115967,0.015564,0.0964355,0.015564,1.02142,0.00915527,0.012207,-0.0247192,-0.0146484,0.0439453
63,3,0.0164795,0.0302124,-0.0228882,0.0296021,0.00701904,-0.0283813,0.0213623,1.30676,0.0152588,-0.0256348,-0.0299072,0.0265503,0.038147
63,4,0.0344849,0.0888062,0.0222778,0.0161743,0.0286865,0.00701904,0.0216675,0.81665,0.0311279,0.017395,-0.0497437,-0.000610352,0.038147
64,0,0.0592041,0.0234985,0.038147,0.0158691,0.0177002,0.0845337,0.012207,1.38428,0.038147,0.0152588,-0.0106812,0.0253296,0.0265503
64,1,0.0341797,0.0341797,0.0320435,0.0283813,0.00823975,0.0439453,0.0213623,0.803528,0.00305176,0.0115967,-0.0653076,0.0445557,0.0265503
64,2,0.0286865,0.020752,0.015564,0.0186157,0.00244141,-0.120239,0.0158691,1.06201,0.0259399,0.0228882,-0.0265503,0.0341797,0.0320435
64,3,0.0167847,0.0283813,0.0250244,-0.000610352,0.0741577,-0.145874,0.0143433,1.2915,0.0216675,0.0177002,-0.0286865,0.0241089,0.0405884
64,4,0.038147,0.0363159,0.0314331,0.0186157,0.00915527,-0.0689697,0.0128174,1.27472,0.00610352,0.0109863,-0.022583,0.0314331,0.0164795
65,0,-0.0106812,0.0344849,0.0296021,0.057373,0.0238037,-0.0418091,0.0363159,0.953674,0.0186157,0.0238037,-0.027771,0.017395,0.0305176
65,1,0.00701904,-0.0262451,0.022583,0.015564,0.00946045,0.115967,0.0408936,1.0376,0.0262451,0.0183105,-0.0170898,0.0790405,0.0384521
65,2,0.0289917,0.0137329,0.0231934,0.0100708,0.0198364,0.0979614,0.022583,0.963745,-0.000915527,0.0134277,-0.0787354,0.0280762,0.0360107
65,3,0.00335693,0.020752,0.0292969,-0.0384521,0.0494385,0.017395,-0.0320435,1.92139,0.017395,-0.0415039,0.0204468,0.0305176,0.0100708
65,4,0.043335,0.0256348,0.0253296,0.00762939,0.0262451,0.022583,0.0149536,1.85852,0.0134277,-0.0161743,-0.0289917,0.0314331,-0.010376
66,0,0.0323486,0.0317383,0.0198364,0.0152588,0.0119019,0.0143433,0.00366211,1.83838,0.0125122,0.0430298,-0.0280762,0.0256348,0.0372314
66,1,0.0198364,0.0238037,0.0262451,0.0320435,0.00915527,0.0106812,0.032959,1.79352,0.0228882,0.0643921,-0.0299072,0.0250244,0.0320435
66,2,0.0344849,0.0604248,0.0238037,0.017395,0.0387573,-0.0518799,0.0158691,1.7041,0.0192261,0.0088501,-0.0283813,0.0283813,0.015564
66,3,0.0354004,0.0305176,0.0299072,0.0189209,0.0134277,-0.0927734,-0.0247192,1.72455,0.0192261,0.0393677,-0.0326538,0.0274658,0.0738525
66,4,0.0320435,0.0500488,0.032959,0.0283813,-0.0140381,-0.0827026,0.0167847,1.70471,0.00579834,0.022583,-0.0311279,0.0363159,0.0289917
67,0,0.0308228,0.0274658,0.0384521,0.0219727,0.0152588,-0.00671387,0.0256348,1.02631,0.0396729,0.0256348,-0.0262451,0.0299072,0.0134277
67,1,0.0430298,0.0204468,0.0378418,0.0189209,0.015564,-0.188599,0.0183105,1.54907,-0.0387573,0.0201416,-0.0323486,0.0439453,0.0265503
67,2,0.0344849,0.0326538,0.0305176,0.0305176,0.0119019,-0.327759,0.0167847,1.15845,0.00762939,0.0134277,-0.0686646,0.0265503,0.0283813
67,3,0.0234985,0.0335693,0.0210571,0.0366211,0.00579834,-0.348206,0.0271606,1.07269,0.0186157,0.0662231,-0.0283813,0.032959,-0.0231934
67,4,0.0650024,0.0265503,0.0332642,0.0262451,0.0299072,-0.518188,0.00671387,1.80817,0.0201416,0.0213623,-0.0314331,0.0268555,0.020752
68,0,0.0256348,0.020752,-0.0180054,0.0280762,0.0149536,-0.667725,0.00671387,1.7218,0.0158691,0.0335693,-0.0332642,0.0283813,0.0219727
68,1,0.0186157,0.0195312,0.0320435,0.0177002,-0.00610352,-0.550842,0.010376,1.46027,0.0250244,0.0363159,-0.0344849,0.0292969,0.0335693
68,2,0.0439453,0.0250244,0.0375366,0.0396729,0.0268555,-0.620117,-0.00366211,1.02997,0.0576782,0.0112915,-0.0360107,0.0115967,0.0274658
68,3,0.0283813,0.0390625,0.032959,0.0259399,0.0317383,-0.713196,0.0164795,1.27014,0.0210571,0.0262451,-0.0308228,0.0387573,0.027771
68,4,0.0430298,0.0372314,0.045166,0.0201416,0.0213623,-1.31927,0.0152588,1.39771,0.0222778,0.0360107,-0.0302124,0.0317383,0.0247192
69,0,0.0363159,0.0302124,0.0283813,0.0320435,0.0201416,-0.335999,0.0170898,0.710754,0.00915527,0.0253296,-0.0335693,0.0247192,0.0253296
69,1,0.0241089,0.0735474,0.022583,0.0253296,0.0183105,0.465698,0.0231934,0.4422,0.0338745,0.0204468,-0.0250244,0.0152588,0.0213623
69,2,0.0292969,0.0250244,0.0244141,0.0308228,0.0286865,0.506592,0.0283813,0.930481,0.017395,0.00274658,-0.0183105,0.0192261,0.0308228
69,3,0.0231934,0.0289917,0.0143433,0.0332642,0.0317383,0.228882,0.00366211,1.10352,-0.0280762,0.0366211,-0.0341797,-0.0384521,0.0305176
69,4,0.03479,-0.00244141,0.0375366,0.0289917,-0.0222778,0.0762939,0.0332642,0.86792,0.0247192,0.0350952,-0.0125122,0.0338745,0.0280762
70,0,0.039978,0.039978,0.0271606,0.0247192,0.0296021,0.117493,0.00915527,1.78925,0.0134277,0.0289917,-0.0149536,0.0241089,0.0274658
70,1,0.0515747,0.0378418,0.0289917,0.0317383,0.0161743,0.115051,-0.00610352,0.957336,0.0183105,0.0213623,-0.0161743,0.0265503,0.0357056
70,2,0.0183105,0.0354004,0.0106812,0.0323486,-0.0201416,0.392151,0.00183105,0.110474,0.0192261,0.0296021,-0.0302124,0.0268555,0.0390625
70,3,0.0405884,0.0192261,0.0335693,0.043335,0.00213623,0.681152,0.0134277,0.313721,0.012207,0.0186157,-0.0344849,-0.020752,0.010376
70,4,0.0396729,0.0268555,0.0262451,0.0186157,-0.0222778,0.461426,0.0183105,0.900574,0.0112915,0.0234985,-0.0201416,0.0195312,0.038147
71,0,0.0341797,0.0280762,0.0305176,0.0244141,0.0210571,1.65955,0.00183105,1.03882,0.0222778,0.0228882,-0.0201416,0.0375366,0.0396729
71,1,0.0308228,0.0274658,0.0250244,0.0723267,0.0234985,1.82648,-0.0250244,0.871887,0.0158691,0.0268555,-0.0183105,0.0292969,0.0305176
71,2,0.0241089,0.0338745,0.0271606,0.0588989,0.0183105,1.78955,0.0204468,0.840454,0.0238037,-0.0100708,-0.0357056,0.0247192,0.0653076
71,3,0.0326538,0.0384521,0.0372314,0.0244141,0.0238037,1.716,0.0109863,0.826416,0.00946045,0.0213623,-0.0250244,0.0234985,0.0170898
71,4,0.0311279,0.0234985,0.0366211,0.032959,0.0106812,1.68762,0.0115967,0.824585,0.0100708,0.0262451,0.00152588,0.0286865,0.0292969
72,0,0.0286865,0.022583,0.0213623,0.0125122,0.0238037,1.65955,0.00854492,0.782776,-0.0201416,0.0296021,-0.0167847,0.0262451,0.0231934
72,1,-0.0247192,0.0332642,0.0192261,-0.00213623,0.0311279,1.59302,0.0497437,0.779114,0.00793457,0.0231934,-0.0109863,0.027771,0.03479
72,2,0.0195312,0.010376,0.0622559,0.0292969,0.0115967,1.57684,0.0137329,0.768433,-0.0360107,0.0152588,-0.0238037,-0.000610352,0.0350952
72,3,0.0283813,0.03479,0.0250244,0.00488281,0.0259399,1.53503,-0.0402832,-0.484009,0.0115967,0.0137329,-0.0210571,0.0335693,0.0302124
72,4,0.03479,0.0222778,0.0192261,0.0866699,0.0210571,1.52039,0.0320435,-0.218201,0.00640869,0.0204468,-0.0228882,0.022583,0.0360107
73,0,-0.0253296,0.0170898,0.0177002,-0.00793457,0.0283813,1.45599,0.0192261,-0.542297,0.0250244,0.0228882,-0.0296021,0.0308228,0.0296021
73,1,0.0292969,0.0363159,0.0302124,0.0344849,0.0283813,1.42914,0.0180054,-0.479431,0.0216675,0.0119019,-0.0265503,0.0299072,0.0204468
73,2,0.0274658,0.0332642,-0.0140381,0.0299072,0.0280762,1.38092,0.0128174,-0.692749,0.00915527,0.0183105,-0.022583,0.0308228,0.0378418
73,3,0.0265503,0.0357056,0.03479,0.0213623,0.0149536,1.35803,0.0140381,-0.753174,0.015564,0.0180054,-0.0204468,0.0177002,0.0143433
73,4,0.0299072,0.039978,0.027771,0.043335,0.027771,1.32965,-0.0271606,-0.563354,0.0201416,-0.00457764,-0.0164795,0.0259399,-0.00610352
74,0,0.0280762,0.0390625,0.0335693,0.015564,0.0256348,0.365906,0.0112915,-1.15967,0.00854492,0.0341797,-0.0152588,0.0192261,0.0390625
74,1,0.0183105,0.0317383,0.0369263,0.0390625,0.00823975,-0.511169,0.0210571,-0.578613,0.0485229,0.0253296,-0.027771,0.0402832,0.0323486
74,2,0.00640869,0.0234985,-0.00976562,0.0170898,0.0204468,-0.798645,0.00793457,-0.397949,0.00915527,0.0302124,-0.0274658,0.03479,0.0158691
74,3,0.0274658,0.0369263,0.0982666,0.0265503,0.0378418,0.327148,0.0204468,-0.396423,0.0268555,0.0292969,-0.0210571,0.0299072,0.00274658
74,4,0.0704956,0.0320435,0.0317383,-0.0332642,0.032959,0.405273,-0.00915527,0.0314331,0.0125122,0.0323486,-0.0189209,0.0244141,0.0274658
75,0,0.0265503,0.0210571,0.00976562,0.0149536,0.0250244,0.538635,0.03479,0.300598,0.0463867,0.00183105,-0.0265503,0.0588989,0.0201416
75,1,0.0146484,0.0198364,0.0488281,0.0299072,0.0326538,0.126953,0.0268555,0.295715,0.0192261,0.0216675,-0.0241089,0.0311279,0.0213623
75,2,0.0216675,0.0439453,0.0149536,0.0320435,0.0241089,-0.0268555,0.0180054,0.598145,0.0164795,0.00823975,-0.0210571,0.0363159,0.0128174
75,3,0.0274658,0.0375366,0.0247192,0.020752,0.0256348,-0.478821,0.0274658,0.556641,0.0198364,0.0201416,-0.0363159,0.0314331,0.0244141
75,4,0.0338745,0.0314331,0.0354004,0.0186157,0.0289917,-0.899353,0.0158691,0.558777,0.012207,0.0280762,-0.0292969,0.0299072,0.0350952
76,0,0.020752,0.00701904,0.0845337,0.0292969,0.0323486,-1.51703,0.0167847,0.568848,0.00976562,0.0253296,-0.0280762,0.0250244,0.0131226
76,1,0.0228882,0.0354004,0.0344849,-0.0134277,0.0354004,-1.01257,0.00701904,0.533752,0.0115967,0.0256348,-0.0241089,0.0244141,0.0149536
76,2,0.0250244,0.0479126,0.0189209,0.0274658,0.0686646,-0.493774,0.0231934,0.528564,0.00610352,0.017395,-0.0253296,0.0418091,0.0265503
76,3,0.0238037,0.0161743,0.0213623,-0.0192261,0.0430298,-0.413818,0.0350952,0.52124,0.0170898,0.0518799,0.0183105,0.0186157,-0.0378418
76,4,0.0247192,0.0204468,0.0341797,0.0238037,0.0778198,-0.232544,0.0289917,-0.112,0.0210571,0.0204468,-0.0189209,0.0265503,0.0247192
77,0,0.0283813,0.0662231,0.017395,0.020752,0.0320435,0.125427,0.0286865,0.207214,0.00549316,0.00915527,-0.0274658,0.00976562,0.0177002
77,1,0.0100708,0.0204468,0.012207,0.0183105,0.015564,0.0588989,0.0308228,-0.00457764,0.0231934,0.017395,-0.0201416,0.0292969,0.0292969
77,2,0.0265503,0.00366211,0.0137329,0.0219727,-0.0177002,-0.0189209,0.0152588,-0.231934,0.00640869,0.0183105,-0.0204468,0.00946045,0.0296021
77,3,-0.0393677,0.0256348,0.0128174,0.0289917,0.00793457,0.0149536,0.0210571,-0.262146,0.0112915,0.0143433,-0.0506592,0.0234985,0.0195312
77,4,0.022583,0.0524902,0.00732422,0.0350952,0.0234985,-0.152283,0.0201416,0.0463867,0.0146484,0.00610352,-0.0140381,0.00732422,0.043335
78,0,0.00427246,0.0320435,0.0115967,0.0149536,0.0323486,-0.296631,0.0231934,0.117188,0.0115967,0.00915527,-0.0268555,0.022583,0.0253296
78,1,0.00671387,0.0262451,0.0424194,0.0296021,0.0299072,-0.266418,0.0222778,-0.518799,0.00793457,0.0180054,-0.00579834,0.00762939,0.0143433
78,2,0.0216675,0.0241089,0.0262451,0.0848389,0.0350952,-0.457458,0.0723267,0.384827,0.0170898,0.0524902,-0.0106812,0.0341797,0.0271606
78,3,-0.012207,0.0305176,0.0183105,0.0289917,0.0338745,-0.433655,0.0183105,0.0750732,0.0140381,0.0247192,-0.00152588,0.0109863,0.0186157
78,4,0.0518799,0.0112915,0.0350952,0.0299072,0.0192261,-0.379944,0.0198364,-0.055542,0.015564,0.0195312,0.0115967,0.0177002,-0.000915527
79,0,0.0210571,0.00183105,0.0344849,0.0265503,0.0238037,-0.241699,0.0198364,-0.185242,0.0186157,0.0216675,-0.0238037,0.0299072,0.0274658
79,1,0.0393677,0.0204468,0.0341797,0.0796509,0.0286865,-0.0112915,0.0579834,-0.170593,0.00305176,0.0222778,-0.0213623,0.0180054,0.0250244
79,2,0.0140381,0.0180054,0.0140381,0.022583,0.0299072,0.0344849,0.0106812,-0.0704956,0.0213623,0.0115967,-0.0216675,0.0543213,0.0393677
79,3,0.0317383,0.0152588,0.0271606,0.0350952,0.0375366,-0.0335693,0.0146484,-0.559998,0.015564,0.0344849,-0.0143433,0.0192261,0.0491333
79,4,-0.00610352,0.0247192,0.0485229,0.022583,0.0363159,0.0201416,0.00823975,0.0201416,0.00762939,0.0137329,-0.0177002,0.0262451,0.0280762
80,0,0.0500488,0.0259399,0.0256348,0.0231934,0.027771,-0.0411987,0.0137329,-0.15625,0.0115967,0.0186157,-0.00640869,0.0167847,0.0244141
80,1,-0.0332642,0.0454712,0.0335693,0.0369263,0.0302124,-0.597229,0.000305176,0.0524902,0.00946045,0.0115967,-0.0140381,-0.000305176,0.0299072
80,2,0.0109863,-0.0177002,0.0210571,0.0222778,0.0360107,-0.661621,0.0244141,-0.0384521,0.0167847,0.0140381,-0.0146484,0.00488281,0.0143433
80,3,0.0115967,0.0158691,0.0466919,0.0338745,0.0271606,-0.506287,0.00976562,0.100403,0.0128174,0.000610352,-0.0158691,0.00915527,0.0305176
80,4,0.0238037,0.065918,0.0210571,0.0332642,0.0613403,-0.0732422,0.0231934,-0.202332,0.0128174,0.0112915,-0.020752,0.0088501,0.022583
81,0,0.0238037,0.0198364,-0.0210571,0.0335693,0.0332642,0.345764,0.017395,-0.992432,0.0286865,-0.0088501,-0.0198364,0.0222778,0.0332642
81,1,0.0137329,0.0170898,0.0265503,0.0180054,0.0344849,0.337219,0.0262451,-0.880432,0.00946045,-0.00366211,-0.0308228,0.015564,0.0305176
81,2,0.012207,0.0192261,0.0180054,0.0256348,0.062561,0.311584,0.0228882,-1.30676,0.017395,0.00305176,-0.0271606,0.022583,0.0244141
81,3,0.027771,0.0152588,-0.0408936,0.0247192,0.0292969,0.258789,0.00793457,-0.6073,0.0128174,0.0146484,-0.020752,0.0558472,0.0201416
81,4,0,0.0204468,0.0448608,0.0289917,0.0430298,0.304565,0.0283813,-0.055542,0.00793457,0.000305176,-0.0195312,-0.020752,0.0231934
82,0,0.0170898,0.0280762,0.0164795,0.0167847,0.0357056,0.302124,0.0250244,-0.00518799,0.0112915,-0.00305176,-0.0186157,0.0222778,0.0308228
82,1,-0.00396729,0.0189209,0.0436401,0.0274658,0.0357056,0.31189,0.0216675,-0.386658,0.0497437,0.0088501,-0.00854492,0.0140381,0.0402832
82,2,0.0234985,0.0180054,0.0274658,0.0280762,0.0241089,-0.318298,0.0265503,-1.10687,0.0088501,0.00701904,-0.022583,0.0158691,0.0415039
82,3,0.0112915,-0.00549316,0.0289917,0.0274658,0.00579834,-2.44476,0.0341797,-0.749512,0.0314331,0.00854492,-0.022583,0.0280762,0.0265503
82,4,0.0292969,0.0262451,0.00915527,0.0317383,0.0323486,-3.06122,0.00396729,-0.513,0.00915527,0.00396729,-0.0292969,0.0137329,0.0125122
83,0,0.0167847,0.0119019,0.0408936,0.0241089,0.0292969,-3.19702,0.032959,0.0332642,0.0253296,0.0131226,-0.0164795,0.0628662,0.00976562
83,1,0.0167847,0.00274658,0.0408936,0.0268555,0.0219727,-3.20465,0.0286865,0.305481,-0.0012207,0.0195312,-0.017395,0.0631714,0.0289917
83,2,-0.00823975,0.065918,0.0231934,0.0421143,0.0689697,-3.13782,0.06073,0.556641,0.0219727,0.0256348,-0.0170898,0.0167847,0.0393677
83,3,0.0137329,0.0183105,-0.00946045,-0.00793457,0.03479,-2.99347,-0.00274658,0.567017,0.0289917,0.0115967,-0.0164795,0.0195312,0.0280762
83,4,0.0189209,0.0265503,0.0314331,0.0305176,0.0265503,-2.13806,0.0280762,-0.388794,0.0210571,0.012207,0.00396729,0.00579834,0.020752
84,0,0.0186157,0.0234985,0.0152588,0.0527954,0.0247192,-1.35437,0.0308228,0.497131,0.0195312,-0.0308228,-0.0213623,0.0131226,0.0402832
84,1,0.00671387,0.0308228,0.0189209,0.0210571,0.0421143,-0.612488,0.0140381,0.479431,0.0302124,-0.00518799,-0.0158691,0.00793457,0.0170898
84,2,0.012207,0.0259399,0.020752,0.0332642,0.0100708,0.0463867,0.0314331,-0.178833,0.0253296,0.0100708,-0.00762939,-0.0170898,0.0231934
84,3,-0.00183105,0.00762939,0.0131226,0.0228882,0.0283813,-0.631409,0.0579834,-0.0534058,0.0189209,-0.00915527,0.000610352,0.0216675,0.0592041
84,4,-0.0299072,0.0152588,0.0265503,0.0448608,0.0271606,-0.819702,0.0283813,-0.404968,0.0204468,-0.0012207,-0.00488281,0.0112915,0.0195312
85,0,0.0189209,0.032959,-0.000610352,0.0390625,0.0396729,-0.992126,0.0314331,-0.947571,0.0149536,0.0158691,-0.0088501,-0.00244141,0.0186157
85,1,0.0372314,0.0183105,0.0231934,0.0219727,0.0323486,-1.12701,0.0363159,-1.35254,0.0204468,0.0204468,-0.03479,0.00946045,0.0219727
85,2,0.00335693,0.00213623,0.0192261,0.0253296,0.00701904,-1.08459,0.0296021,-0.85022,0.0250244,0.03479,-0.0320435,0.0189209,0.027771
85,3,0.0320435,0.00152588,0.0247192,0.0357056,0.00732422,-1.06628,0.0210571,-1.01898,0.0143433,0.0183105,-0.0595093,0.0222778,0.0378418
85,4,-0.00854492,0.0149536,0.0219727,-0.00549316,0.0360107,-1.03577,0.00671387,-1.34644,0.0219727,0.0180054,-0.0378418,0.0134277,0.0753784
86,0,0.0289917,0.0180054,0.0180054,0.0143433,0.0286865,-1.02112,0.0314331,-1.25397,0.0241089,-0.0323486,-0.0234985,0.0161743,0.0466919
86,1,0.0289917,-0.00457764,-0.00976562,0.0363159,0.0643921,-1.00769,0.0427246,-1.19995,0.0250244,0.0137329,-0.0320435,0.0183105,0.0332642
86,2,0.0415039,0.00915527,0.00457764,0.0665283,0.0189209,-0.968628,0.0338745,-1.15356,0.0180054,0.0149536,-0.0244141,0.00518799,0.0201416
86,3,0.00610352,0.0177002,0.0338745,0.0234985,0.0323486,-0.330505,0.0390625,-1.62933,0.00671387,0.0143433,-0.0231934,0.017395,0.015564
86,4,0.0152588,-0.00183105,-0.0488281,0.0332642,0.0448608,0.201416,0.0338745,-0.523376,0.0119019,0.0119019,-0.0311279,0.0323486,0.0192261
87,0,0.0152588,0.0112915,0.00427246,0.0811768,0.03479,0.375061,0.0332642,-1.00098,0.0296021,0.0201416,-0.0265503,0.0180054,0.0186157
87,1,0.0204468,0.00640869,-0.0115967,0.0183105,0.0195312,0.296936,0.0201416,-1.25458,0.00915527,-0.0518799,-0.0228882,0.010376,-0.0106812
87,2,0.0332642,0.00549316,0.0210571,0.015564,0.0213623,0.238953,0.0344849,-1.50848,0.0234985,0.0305176,-0.0234985,0.022583,0.0198364
87,3,0.0137329,0.0125122,0.0537109,0.022583,0.0296021,0.158997,0.0204468,-1.30646,0.0259399,0.0100708,-0.0253296,0.0186157,0.0250244
87,4,0.00213623,-0.0219727,0.0189209,0.0152588,0.0286865,0.19928,0.0271606,-1.54572,0.0350952,0.0289917,-0.0241089,-0.00946045,0.0317383
88,0,0.0357056,0.0228882,0.0222778,0.0198364,0.020752,0.44281,0.0427246,-1.69373,0.027771,0.0192261,0.00946045,0.0140381,0.0234985
88,1,0.0204468,0.0186157,0.017395,0.0186157,0.0280762,0.488892,0.0296021,-1.05591,0.0186157,0.0170898,-0.00793457,0.00579834,0.0012207
88,2,0.0146484,0.0164795,0.0125122,0.0192261,0.0332642,0.574341,0.0460815,-1.0199,0.00488281,0.00579834,-0.00640869,-0.00976562,-0.00274658
88,3,0.0164795,0.0164795,0.0219727,0.0222778,0.0274658,0.775452,0.0772095,-0.985107,0.0268555,0.0100708,-0.0268555,0.0222778,0.00793457
88,4,0.0170898,0.00427246,0.0186157,0.0354004,0.0335693,0.864258,0.0332642,-0.747681,0.0238037,0.00671387,0.00640869,0.012207,0.020752
89,0,0.0170898,0.0222778,0.0204468,0.0198364,0.0213623,0.921326,0.0234985,-0.0927734,0.00183105,0.0131226,-0.0244141,0.0268555,0.00762939
89,1,-0.0189209,0.0164795,0.0167847,0.0405884,0.039978,0.923767,0.0680542,-0.379028,0.0106812,-0.0231934,-0.0283813,0.0137329,0.0421143
89,2,0.020752,0.0305176,0.0256348,0.0112915,0.0198364,0.903931,0.0286865,-0.7901,0.0704956,0.0485229,-0.0201416,-0.0112915,0.0180054
89,3,0.0289917,-0.000305176,0.0500488,0.00579834,0.0177002,0.809937,0.0299072,-0.0167847,0.03479,0.0222778,-0.0247192,0.012207,0.0128174
89,4,0.0164795,0.0204468,0.0280762,0.0115967,0.0177002,0.901184,0.032959,-0.52124,0.0213623,0.0308228,-0.00244141,0.000305176,0.0201416
90,0,0.0152588,0.038147,0.0259399,0.0274658,0.0299072,0.97229,0.0396729,-0.588989,0.0247192,0.0186157,-0.0167847,0.0244141,0.0195312
90,1,0.0204468,0.0012207,0.00457764,0.0125122,0.0259399,0.829163,0.0424194,-0.287476,0.0344849,0.0137329,-0.0164795,0.0170898,0.0216675
90,2,-0.0131226,0.0186157,0.015564,0.0234985,0.0360107,0.699158,0.0305176,-0.266113,0.0204468,0.0201416,-0.0219727,0.00915527,0.0180054
90,3,0.0137329,0.0183105,0.0183105,0.0143433,0.0268555,0.801086,0.0350952,-0.270386,0.0326538,0.00549316,-0.0222778,0.00732422,0.010376
90,4,0.020752,0.0100708,0.0167847,0.0137329,0.0259399,0.777588,0.0296021,-0.294495,0.0195312,0.0247192,-0.0228882,0.0579834,0.0222778
91,0,0.0192261,0.0143433,0.0216675,0.0170898,0.0384521,0.781555,0.0262451,0.264282,0.0311279,0.0231934,0.0128174,0.00244141,0.0143433
91,1,0.0268555,-0.000305176,0.0198364,0.0219727,0.0213623,0.76416,0.0299072,0.435791,0.0280762,0.0393677,-0.0396729,-0.0137329,0.0418091
91,2,0.012207,0.0219727,0.00640869,0.00915527,0.0491333,0.743713,0.0234985,0.343933,0.0265503,0.0186157,-0.0149536,0.0137329,0.0357056
91,3,0.0125122,0.0198364,0.0170898,0.0134277,0.039978,0.722961,0.0354004,-0.0604248,0.0152588,0.0216675,-0.00427246,0.00671387,0.0161743
91,4,0.0524902,-0.00335693,0.0137329,-0.0128174,0.032959,0.717773,0.027771,-0.0128174,0.0268555,0.0491333,-0.0317383,0.00549316,0.0143433
92,0,0.020752,0.0143433,0.0088501,0.010376,0.0177002,0.694275,0.0537109,0.0546265,0.00152588,-0.0274658,-0.0308228,0.0131226,0.00579834
92,1,-0.0247192,0.0146484,0.0140381,0.0610352,0.0216675,0.756226,0.0363159,-0.526733,0.0241089,0.0311279,-0.0228882,0.0192261,0.0210571
92,2,0.022583,0.00457764,0.00671387,0.00915527,0.020752,0.783691,0.0360107,0.240784,0.0198364,0.0302124,-0.0186157,0.0323486,0.0234985
92,3,0.0424194,0.0198364,0.00183105,0.00762939,0.012207,0.639648,0.0201416,0.0350952,0.0509644,0.0158691,0.010376,0.0250244,0.00274658
92,4,0.0088501,0.0299072,0.0152588,0.017395,0.0241089,0.446472,0.0363159,0.325623,0.0262451,0.0198364,-0.0192261,0.0112915,0.0164795
93,0,0.0231934,0.0137329,-0.00244141,0.00488281,0.0244141,0.540161,0.00854492,0.0958252,0.0268555,0.0350952,-0.020752,0.0152588,0.03479
93,1,0.017395,0.0189209,0.0109863,0.0183105,0.0259399,0.506897,0.0265503,0.196533,0.0311279,0.0332642,-0.0256348,0.0152588,0.0189209
93,2,0.012207,0.00976562,0.00854492,0.015564,0.0250244,0.333557,0.0335693,0.24231,0.0311279,0.0256348,-0.0442505,0.0109863,0.0228882
93,3,0.0314331,0.012207,0.0222778,0.0271606,0.0119019,0.274353,0.0869751,-0.0811768,0.0286865,0.00579834,-0.0274658,0.0180054,0.0311279
93,4,-0.0189209,0.0296021,0.0296021,0.0161743,0.0164795,0.316772,0.0338745,0.901794,-0.0125122,0.0253296,-0.0296021,0.00762939,0.0128174
94,0,0.000305176,0.00152588,0.0137329,0.0186157,0.0170898,0.438843,0.0460815,0.849915,0.0323486,0.0363159,-0.027771,0.00640869,0.0149536
94,1,0.0143433,0,0.0262451,0.00640869,0.0112915,0.373535,0.0320435,0.238037,0.0198364,0.0192261,-0.0198364,0.0146484,0.00335693
94,2,0.0244141,0.0204468,-0.0158691,0.0201416,0.0146484,0.1828,0.0238037,-0.2005,0.0457764,0.0375366,-0.0332642,0.00518799,0.0183105
94,3,0.027771,-0.0012207,0.0253296,0.0311279,0.00427246,0.220642,0.0424194,0.254517,-0.0112915,0.0357056,-0.0177002,0.017395,0.00640869
94,4,0.0323486,0.00671387,0.0183105,0.0149536,0.0140381,0.431519,0.00640869,0.149536,0.0302124,0.00183105,-0.022583,0.010376,0.0222778
95,0,0.0253296,0.00946045,0.0152588,0.0570679,0.0259399,0.46051,0.0579834,0.323181,0.0231934,0.0463867,-0.0286865,0.0183105,-0.0134277
95,1,0.0250244,0.0146484,0.0231934,-0.00335693,0.0335693,0.371399,0.0271606,0.32074,0.0283813,0.0335693,-0.0335693,0.0134277,0.0143433
95,2,0.0189209,0.022583,0.0161743,0.017395,0.022583,0.298157,0.00793457,0.319519,0.0369263,-0.0128174,-0.0354004,-0.0109863,0.0128174
95,3,0.0201416,0.0247192,0.0595093,0.0299072,0.0271606,0.320435,0.0222778,0.307922,0.0537109,0.0216675,-0.0326538,0.043335,0.00579834
95,4,0.027771,0.0149536,0.0234985,0.0305176,0.0302124,0.233765,0.0247192,0.312805,0.0576782,0.0384521,-0.0497437,0.0177002,0.0119019
96,0,0.00793457,-0.0375366,0.012207,0.0143433,0.0250244,0.0131226,0.0445557,0.298767,0.0231934,0.0320435,-0.0323486,0.00823975,-0.00701904
96,1,0.0234985,0.0201416,0.0137329,0.00793457,-0.00274658,-0.0869751,0.0286865,0.337524,0.0341797,0.0228882,-0.0769043,0.0439453,0.00732422
96,2,0.0323486,0.0543213,-0.00671387,0.000915527,0.0149536,-0.167542,0.0405884,-0.784607,0.0323486,0.0332642,-0.0216675,0.00488281,0.00274658
96,3,0.0152588,0.00579834,0.0152588,0.0238037,0.0268555,-0.286255,0.0582886,-0.541077,0.0183105,0.0119019,-0.0299072,-0.00305176,0.00457764
96,4,0.0283813,0.0256348,0.0228882,0.0234985,0.0201416,-0.272522,0.0158691,-0.541382,0.0384521,0.0262451,-0.0265503,0.00152588,0.000915527
97,0,0.0311279,0.0311279,0.0424194,0.0106812,0.0112915,-0.210266,0.0387573,-0.547791,0.0177002,0.0363159,-0.0198364,0.00915527,-0.0357056
97,1,0.0363159,0.0128174,0.0195312,0.0552368,0.0112915,-0.19928,0.0274658,-0.525818,0.0210571,0.0134277,-0.0326538,0.0210571,0.00915527
97,2,0.0369263,0.0146484,-0.00183105,0.0250244,0.0119019,-0.22583,0.0213623,0.395508,0.043335,0.0396729,-0.0100708,0.0131226,0.0177002
97,3,0.0320435,0.0253296,0.0198364,0.0140381,0.0311279,-0.284424,0.020752,0.168457,-0.0128174,0.0350952,-0.0286865,0.0741577,0.0100708
97,4,0.015564,0.0363159,0.0241089,0.0241089,-0.0100708,-0.424805,0.0442505,-0.72937,0.0299072,0.0253296,-0.0201416,0.0164795,0.0213623
98,0,0.0180054,0.0112915,0.0109863,0.020752,0.0128174,-0.539246,0.027771,0.3302,0.0753784,0.0262451,-0.0213623,0.012207,0.0112915
98,1,0.0244141,0.0296021,0.0177002,0.0119019,0,-0.683594,0.0262451,0.504761,0.0427246,0.0262451,-0.0332642,0.0109863,0.0152588
98,2,0.0387573,0.0152588,0.0204468,0.00732422,0.0170898,-0.576782,0.00915527,0.424194,0.0256348,0.0320435,-0.0421143,0.0219727,0.0216675
98,3,0.0247192,0.0210571,0.0158691,0.0631714,0.00152588,-0.576172,0.027771,0.403137,0.0228882,0.0216675,-0.0350952,0.0198364,0.017395
98,4,0.0234985,0.00610352,0.0128174,-0.0262451,-0.00946045,-0.525818,0.0204468,0.339355,0.0137329,0.0314331,-0.022583,0.0238037,0.0204468
99,0,0.0289917,0.0183105,0.0119019,0.0372314,0.0012207,-0.344238,0.0357056,0.13916,0.0341797,-0.00366211,0.00549316,0.0213623,-0.00671387
99,1,0.0320435,0.0537109,0.0271606,0.0231934,0.0494385,-0.291443,0.0265503,0.0930786,0.0341797,0.0476074,-0.0247192,0.0186157,0.0164795
99,2,0.0302124,0.00915527,0.0167847,0.0140381,0.0250244,-0.306396,0.0195312,0.118713,0.0164795,0.043335,-0.0415039,0.0210571,0.0778198
99,3,0.0177002,0.015564,0.0137329,0.0152588,0.00518799,-0.25238,0.0314331,0.102234,0.0296021,0.0299072,-0.0299072,0.0222778,0.015564
99,4,0.0823975,0.0292969,0.0186157,-0.0158691,0.00671387,-0.19989,0.0402832,0.088501,0.022583,0.0259399,-0.0354004,0.0366211,0.0256348
100,0,0.0253296,0.0125122,0.0112915,0.0109863,0.00823975,-0.0628662,0.0186157,0.11261,0.0201416,0.0317383,-0.0485229,0.0222778,0.0109863
100,1,0.0198364,0.0140381,0.0152588,0.00427246,0.0125122,0.0354004,0.0134277,0.0967407,0.0283813,0.0506592,-0.0302124,0.0268555,0.0408936
100,2,0.0253296,0.0201416,-0.000305176,0.00854492,0.00213623,0.0469971,0.0280762,0.0991821,-0.000610352,0.0259399,-0.0268555,0.015564,0.0366211
100,3,0.0259399,0.0192261,0.0216675,0.0106812,0.0183105,0.0622559,0.0219727,-0.186157,0.0326538,0.0289917,-0.0149536,0.0241089,-0.0164795
100,4,0.0320435,0.00366211,0.0302124,0.0109863,0.0137329,0.00335693,0.0210571,0.549622,0.0320435,0.055542,-0.0384521,0.0268555,0.0259399
101,0,0.0259399,0.00610352,0.0119019,0.00701904,0.0183105,0.0561523,0.0250244,0.179749,0.0454712,0.0231934,-0.0369263,0.0238037,0.0250244
101,1,0.0311279,0.0152588,0.0115967,0.0195312,0.00244141,-0.0350952,0.0222778,0.248413,0.0302124,0.0271606,-0.0396729,0.0231934,0.0189209
101,2,0.0234985,0.0192261,0.0143433,0.00396729,0.00457764,-0.106506,0.0210571,0.330505,0.0320435,0.0582886,-0.0341797,0.0823975,0.0259399
101,3,0.0167847,0.0250244,0.0201416,0.0228882,0.0183105,-0.0784302,0.0192261,1.34949,0.0146484,0.0332642,-0.0299072,0.000915527,0.022583
101,4,0.027771,0.00823975,0.0125122,0.00549316,-0.000305176,0,-0.00396729,1.11084,0.0238037,0.0900269,-0.0280762,0.0292969,0.0222778
102,0,0.0408936,0.0210571,0.0460815,-0.00244141,0.0106812,0.0680542,0.0238037,-0.197754,0.0244141,0.0234985,-0.0335693,0.0283813,0.0335693
102,1,0.0305176,0.0137329,0.0161743,-0.0265503,0.0241089,-0.0979614,0.0238037,0.188293,0.0289917,0.0311279,-0.0375366,0.0314331,0.0186157
102,2,0.0247192,0.0198364,-0.0012207,0.0149536,0.0186157,-0.022583,0.0231934,-0.845337,0.0299072,0.0296021,-0.0473022,-0.0164795,0.0143433
102,3,0.012207,0.0338745,0.0299072,0.0125122,0.0250244,0.0643921,0.00183105,-2.11273,0.0192261,0.0265503,-0.0134277,0.0183105,0.0396729
102,4,0.017395,0.0415039,0.0146484,0.0161743,0.0128174,0.015564,0.0317383,-2.86652,0.0360107,0.0454712,-0.0341797,0.0158691,0.00640869
103,0,0.0259399,0.0463867,0.00915527,0.0234985,0.0109863,0.131226,0.0289917,-2.8421,0.0497437,0.0253296,-0.000305176,0.0357056,0.00671387
103,1,0.0198364,0.0177002,-0.000915527,0.0180054,0.0201416,0.232849,0.015564,-1.05133,0.0183105,0.0640869,-0.0256348,0.0915527,0.0335693
103,2,0.0332642,0.0244141,0.0363159,0.0216675,0.0170898,0.219421,0.0238037,-1.37634,0.022583,0.0222778,-0.017395,0.0280762,0.0283813
103,3,0.0244141,0.0158691,0.0250244,0.0238037,0.027771,0.0332642,0.0100708,-0.0515747,0.0189209,0.0357056,-0.0369263,0.0244141,0.0250244
103,4,0.0292969,0.010376,0.00854492,0.0289917,0.0158691,0.248108,0.0180054,-0.305481,0.0183105,0.0610352,-0.0241089,0.0222778,0.0305176
104,0,0.0283813,0.0537109,0.0131226,0.0158691,0.00823975,0.411682,0.0192261,-0.822449,0.0421143,0.0289917,-0.0231934,0.0268555,0.017395
104,1,0.022583,0.0363159,0.00854492,0.00518799,0.0244141,0.422668,0.0265503,-0.187378,0.0228882,0.0299072,-0.0491333,0.010376,0.0192261
104,2,0.0268555,0.0216675,0.0238037,-0.00640869,0.00305176,0.482483,0.0378418,0.215454,0.0323486,0.0549316,-0.0292969,0.027771,0.0186157
104,3,-0.0137329,0.0231934,-0.0012207,0.015564,0.0164795,0.503845,0.0271606,0.629883,0.038147,0.0357056,-0.0332642,0.0341797,0.0363159
104,4,0.0250244,0.0311279,0.0106812,0.0140381,-0.00701904,0.583496,0.0296021,0.715942,0.0241089,0.0445557,0.0143433,0.032959,0.0473022
105,0,0.0323486,0.0228882,0.0167847,0.0201416,0.0149536,0.576172,0.0088501,1.71967,0.0283813,0.0247192,-0.027771,0.0286865,0.0387573
105,1,0.0332642,0.015564,0.0140381,0.00915527,0.0201416,0.654297,0.0262451,1.95496,0.0152588,0.0280762,-0.0570679,0.0308228,0.022583
105,2,0.0268555,0.0189209,0.0204468,0.020752,-0.00610352,1.0199,0.0317383,2.3584,-0.0204468,0.0357056,-0.0238037,0.0280762,0.0338745
105,3,0.050354,0.0286865,0.0228882,-0.0100708,0.0296021,1.18378,0.0396729,2.16034,0.0314331,0.0274658,-0.0274658,0.0180054,0.0241089
105,4,0.0360107,0.0317383,0.0616455,0.0262451,0.0280762,0.865173,0.0125122,2.40845,0.0274658,0.0305176,-0.0366211,0.0183105,0.039978
106,0,0.0201416,0.0274658,0.00854492,0.0137329,0.0210571,0.944214,0.0131226,1.78986,0.0247192,0.0335693,-0.0250244,0.0430298,0.0332642
106,1,0.0421143,0.0247192,0.0161743,0.0405884,0.0186157,0.628662,0.0311279,0.728149,0.0262451,0.0250244,-0.027771,0.0393677,0.0222778
106,2,0.0250244,-0.0012207,0.017395,0.00976562,0.0152588,0.800171,0.0280762,1.15173,0.0323486,0.0253296,-0.0253296,0.0869751,0.0186157
106,3,0.0265503,0.0164795,0.012207,0.00854492,0.00701904,1.06842,0.00701904,0.314331,0.0213623,-0.0140381,-0.0256348,0.0357056,0.0793457
106,4,0.0302124,0.0308228,0.00762939,0.0280762,0.0241089,1.18164,0.0344849,1.4032,0.027771,0.0415039,-0.0253296,0.0186157,0.0326538
107,0,0.0228882,0.0253296,0.0564575,0.0170898,0.00976562,1.0141,0.0128174,1.77155,0.0311279,0.00396729,-0.0302124,0.0238037,0.0305176
107,1,0.0354004,0.000305176,0.0216675,0.0167847,0.0012207,0.792236,0.0415039,1.15295,0.020752,0.0305176,-0.0286865,0.0445557,0.0253296
107,2,0.0402832,0.0210571,0.0170898,0.0112915,0.0119019,0.583801,-0.0125122,0.888367,0.0326538,-0.0100708,-0.0344849,0.0238037,0.0457764
107,3,0.0439453,0.0195312,0.0299072,0.0375366,0.00640869,0.491333,0.0234985,0.158691,0.0167847,0.0271606,-0.0378418,0.0213623,0.017395
107,4,0.0341797,0.0140381,0.0280762,0.0234985,0.0146484,0.383911,0.010376,1.17279,0.0460815,0.0177002,-0.038147,0.0402832,0.0222778
108,0,0.0302124,0.017395,0.0314331,0.0146484,-0.0088501,0.37384,0.0268555,0.816345,0.0332642,0.0222778,-0.0497437,0.0323486,0.0296021
108,1,0.0326538,0.0238037,0.0265503,0.0250244,0.0125122,0.270081,0.0119019,0.976257,0.0210571,0.0292969,-0.0286865,0.0302124,0.00732422
108,2,0.0308228,0.0350952,0.0292969,0.022583,0.0115967,0.143738,0.0219727,1.51917,0.022583,0.0238037,-0.0149536,0.0408936,0.0360107
108,3,0.0204468,0.0402832,0.0320435,0.0192261,0.0219727,0.083313,0.0286865,2.13715,0.0204468,0.0268555,-0.0234985,0.00213623,0.0192261
108,4,0.027771,0.0247192,0.0256348,0.0323486,0.0088501,0.00671387,0.0271606,1.01929,-0.0152588,0.0366211,-0.0280762,0.0222778,0.0219727
109,0,0.0317383,0.0253296,0.0286865,0.0183105,0.0201416,0.0405884,0.0286865,0.811157,0.0292969,0.0253296,-0.0350952,0.0372314,0.0286865
109,1,0.0296021,0.0280762,0.0344849,0.0204468,0.0274658,-0.0534058,0.0170898,0.848389,0.0192261,0.0204468,-0.0396729,0.0344849,0.0134277
109,2,0.0262451,0.0283813,0.0259399,0.0344849,0.0201416,-0.0354004,0.0161743,0.474854,0.0262451,-0.00152588,-0.0323486,0.0372314,0.0292969
109,3,0.0445557,0.0296021,0.0292969,-0.0299072,0.0265503,-0.0454712,0.00305176,0.81665,0.0360107,0.027771,-0.0265503,0.0262451,0.0238037
109,4,0.0405884,0.043335,0.0238037,0.0198364,0.0286865,-0.0534058,0.0216675,1.3681,0.0161743,0.0253296,-0.0186157,0.0131226,0.0323486
110,0,0.020752,0.0302124,0.0180054,0.0256348,0.0128174,-0.209656,0.00579834,1.64795,0.0222778,0.0341797,-0.0323486,0.0283813,0.0286865
110,1,0.0305176,0.0323486,0.0234985,0.00732422,0.0161743,-0.282593,-0.0012207,1.08948,-0.0238037,0.0256348,-0.0338745,0.0918579,0.0378418
110,2,0.0268555,0.0384521,0.0286865,0.0210571,-0.000610352,-0.157166,0.00610352,0.252075,0.0210571,0.0299072,-0.0286865,0.0463867,0.03479
110,3,0.0326538,0.0360107,0.0219727,0.0164795,0.0302124,-0.194092,0.0259399,0.681458,0.0186157,-0.00762939,-0.0274658,0.0323486,0.0317383
110,4,0.0350952,0.022583,0.0305176,0.027771,0.0241089,-0.266724,0.0164795,-0.391846,0.0216675,0.0314331,-0.0305176,0.027771,0.0201416
111,0,0.0323486,0.0317383,0.0183105,0.0302124,0.00701904,-0.283813,-0.00244141,-0.0808716,0.0231934,0.0204468,-0.0177002,0.0506592,0.0259399
111,1,0.0186157,0.022583,0.0238037,0.0326538,0.0204468,-0.245972,0.00457764,0.168152,0.0170898,0.0286865,-0.039978,0.0198364,0.0253296
111,2,0.0247192,0.0125122,0.0393677,0.0216675,0.050354,-0.288391,0.010376,-1.29211,0.0335693,0.0186157,-0.0317383,0.0387573,0.0363159
111,3,0.0332642,0.0372314,0.0201416,0.0244141,-0.00152588,-0.249634,0.0158691,-1.57898,0.0268555,0.0204468,-0.0286865,0.0344849,0.0326538
111,4,0.0469971,0.0494385,0.032959,0.00640869,0.0311279,-0.24292,0.0140381,-2.51862,0.0289917,0.0134277,-0.0177002,0.0378418,0.0305176
112,0,0.0305176,0.0390625,0.0204468,0.00610352,0.0250244,-0.235901,-0.0585938,-1.44806,0.0170898,0.0445557,-0.0396729,0.0314331,0.0167847
112,1,0.0201416,0.0234985,0.0088501,0.0100708,0.0149536,-0.142517,0.0158691,-1.70532,0.0213623,0.00640869,-0.0274658,0.0405884,0.0784302
112,2,0.0164795,0.0299072,0.0256348,0.0143433,0.0201416,0.0970459,0.0125122,-1.67389,0.0088501,0.0167847,-0.0613403,0.0387573,0.0418091
112,3,0.0369263,0.0271606,0,0.027771,0.012207,0.141602,0.0198364,-2.16217,-0.032959,0.0213623,-0.0274658,0.0210571,0.0283813
112,4,0.0323486,0.0283813,0.015564,0.0186157,0.0323486,0.273132,0.0283813,-1.22681,0.0234985,-0.00274658,-0.012207,0.0460815,-0.0259399
113,0,0.0198364,0.0265503,0.0256348,0.0195312,0.017395,0.310364,0.0167847,-2.66632,0.0115967,0.00946045,-0.0262451,0.03479,0.0286865
113,1,0.0479126,0.0286865,0.0466919,0.0088501,0.0296021,0.495911,-0.0256348,-2.82349,0.0137329,0.0280762,-0.0280762,0.0305176,0.0250244
113,2,0.0265503,0.0460815,0.0195312,0.0271606,0.0149536,0.559082,0.0177002,-1.91925,0.0222778,0.0204468,-0.038147,0.0283813,0.0320435
113,3,0.0424194,0.0280762,0.0384521,0.0219727,0.0234985,0.500183,0.00244141,-2.24243,0.0137329,0.0320435,-0.015564,0.0250244,0.0323486
113,4,0.0299072,-0.027771,0.0497437,0.0222778,0.0198364,0.318604,0.0137329,-2.48138,0.0186157,0.0311279,-0.0299072,0.0823975,0.0311279
114,0,0.0253296,0.022583,-0.020752,0.020752,0.0228882,0.243225,0.0195312,-2.60193,0.00274658,0.0247192,-0.0335693,0.0415039,0.0354004
114,1,0.0332642,0.0628662,0.0286865,0.0512695,0.0296021,0.208435,0.0323486,-2.73529,0.0210571,0.0234985,-0.0411987,0.0372314,0.0314331
114,2,0.0387573,0.0393677,0.0244141,0.0167847,0.0143433,0.211182,-0.00427246,-1.30157,0.0112915,0.0219727,-0.0268555,0.0326538,-0.0274658
114,3,0.0430298,0.0256348,0.032959,0.085144,0.0439453,0.117798,-0.0311279,-0.583801,0.0259399,0.0106812,-0.0253296,0.0338745,0.03479
114,4,0.00915527,0.0335693,0.0177002,0.0195312,0.0759888,0.0140381,0.0112915,0.274353,0.0180054,0.0274658,-0.0579834,0.0274658,0.0360107
115,0,0.022583,0.0140381,0.0326538,0.0241089,0.0317383,-0.115662,0.0192261,0.103149,0.0201416,0.022583,-0.0292969,0.0012207,0.0469971
115,1,0.0341797,0.0234985,0.0280762,0.0186157,0.0558472,-0.121765,0.0170898,-0.015564,0.0158691,0.0299072,-0.0357056,0.038147,0.0369263
115,2,0.0280762,0.0271606,0.0436401,0.0167847,0.0216675,-0.0283813,0.0418091,-0.158386,-0.0341797,0.0396729,-0.0253296,0.0283813,0.0311279
115,3,0.0390625,0.020752,0.0604248,0.0271606,0.0228882,-0.105591,0.0119019,-0.365601,0.0286865,0.0247192,-0.0289917,0.0183105,0.0119019
115,4,0.0192261,0.0253296,0.0262451,0.0311279,0.0259399,-0.0927734,0.0210571,-0.350647,0.0445557,0.00793457,-0.0198364,-0.0100708,0.0323486
116,0,0.0244141,0.0387573,0.0396729,0.0335693,0.0299072,-0.214844,0.0115967,-0.350037,0.0161743,-0.012207,-0.0177002,0.0268555,0.0335693
116,1,0.0375366,-0.0167847,0.0344849,0.0247192,-0.0308228,-0.281677,0.010376,-0.149841,0.0164795,0.0152588,-0.0222778,0.0592041,0.0363159
116,2,-0.000305176,0.0268555,0.0360107,0.0360107,0.0323486,-0.281982,0.0204468,-0.474548,0.00793457,0.0170898,-0.0338745,0.0289917,0.0415039
116,3,0.0219727,0.0302124,0.017395,0.0231934,0.0247192,-0.256348,0.020752,-0.429688,0.00854492,0.0228882,-0.0222778,-0.0109863,0.0411987
116,4,-0.0198364,0.0521851,0.0332642,0.017395,0.0250244,-0.300903,0.0726318,-1.0556,0.0115967,0.0512695,-0.0634766,0.0167847,-0.00305176
117,0,0.0390625,0.0326538,0.0259399,0.022583,0.0183105,-0.317078,0.0210571,-2.23694,0.0338745,0.0137329,-0.0241089,0.0323486,0.0363159
117,1,0.0369263,0.0161743,0.0204468,0.0283813,0.0170898,-0.354309,0.0119019,-1.20026,0.017395,0.0112915,-0.0314331,0.00976562,0.0418091
117,2,0.0344849,-0.00213623,0.0341797,0.0219727,-0.0360107,-0.359802,0.022583,-2.05505,0.00549316,0.0112915,-0.0344849,0.0219727,0.0308228
117,3,0.0146484,0.0308228,0.039978,0.0360107,0.0247192,-0.394897,0.0332642,-2.44537,0.00793457,0.0259399,-0.027771,0.0247192,0.0213623
117,4,0.0228882,0.017395,0.0137329,0.0283813,0.0134277,-0.4245,0.0231934,-2.10999,0.0296021,0.0143433,0.0177002,0.0265503,0.0210571
118,0,0.0228882,0.0274658,0.0308228,0.0302124,0.0146484,-0.35553,0.0177002,-0.662842,0.0140381,-0.00579834,-0.0338745,0.032959,0.0271606
118,1,-0.0186157,0.0411987,0.0183105,0.0665283,0.0280762,-0.350037,0.0344849,-0.770264,0.00793457,0.00457764,-0.020752,0.0296021,0.00823975
118,2,0.00946045,0.0189209,-0.00427246,0.0296021,0.0088501,-0.363159,0.0177002,-1.1615,0.0143433,0.020752,-0.0271606,0.0216675,0.0289917
118,3,0.0265503,0.0308228,0.0244141,0.0231934,0.0350952,-0.454102,0.0128174,-1.60522,0.012207,0.0164795,-0.0363159,0.0231934,0.0323486
118,4,0.0213623,0.0622559,0.0558472,0.0262451,-0.0109863,-0.454712,0.0201416,-1.71997,0.0247192,0.0164795,-0.0238037,0.0189209,0.0164795
119,0,0.012207,0.0201416,0.0506592,0.0323486,0.0219727,-0.437012,0.0299072,-1.30798,0.0134277,0.00335693,-0.0219727,0.0296021,0.0256348
119,1,0.00610352,0.0344849,0.0265503,0.0387573,0.0299072,-0.458984,0.0296021,-1.96472,0.015564,-0.00640869,-0.0283813,0.0210571,0.0830078
119,2,0.0222778,0.0363159,-0.00274658,0.0167847,0.0253296,-0.461426,0.0112915,-1.64612,0.0253296,0.00793457,-0.022583,0.0234985,0.0292969
119,3,0.0302124,0.0454712,0.03479,0.0619507,0.0262451,-0.42572,-0.0115967,-1.82587,0.0140381,0.0189209,-0.0149536,0.0146484,0.0250244
119,4,0.0411987,0.0170898,0.0262451,0.0320435,0.0411987,-0.354004,0.0216675,-1.55853,0.0106812,0.0152588,-0.00366211,0.0228882,0.015564
120,0,0.0256348,0.0265503,0.0268555,0.000610352,0.0338745,-0.355835,-0.0158691,-0.914001,-0.00274658,0.0512695,-0.0341797,0.0320435,0.0109863
120,1,0.0253296,0.027771,0.0332642,0.0213623,0.0415039,-0.329285,0.0170898,-1.02356,0.00701904,0.0213623,-0.0338745,0.0280762,0.0378418
120,2,0.0408936,0.0363159,0.00396729,0.0167847,0.0177002,-0.288696,0.0280762,-1.36414,0.0204468,0.0131226,-0.0158691,0.0320435,0.0170898
120,3,0.0134277,0.027771,0.0314331,0.0469971,0.0338745,-0.334167,0.0372314,-1.53839,-0.00518799,0.00366211,-0.0341797,0.0247192,0.0320435
120,4,0.0131226,0.0292969,0.0274658,0.0228882,0.0213623,-0.420837,0.0195312,-1.41327,0.010376,0.0726318,-0.00213623,0.0259399,0.0753784
121,0,0.0158691,0.0180054,0.0201416,-0.0012207,0.0357056,-0.400085,0.015564,-1.59271,0.0109863,0.0357056,-0.0204468,0.0222778,0.022583
121,1,0.015564,0.0320435,0.0265503,0.0384521,0.0189209,-0.470886,0.0231934,-1.50696,-0.00946045,0.0186157,-0.00976562,0.0149536,0.0238037
121,2,0.0198364,0.0323486,0.0259399,0.0268555,0.0341797,-0.585022,0.015564,-1.47095,0.0201416,-0.0286865,-0.0250244,0.0231934,0.027771
121,3,0.0256348,0.0344849,-0.0268555,0.0354004,0.0305176,-0.545654,-0.00732422,-1.42242,0.0253296,0.00213623,-0.0186157,0.0299072,0.0302124
121,4,0.0183105,0.0320435,0.0424194,0.0161743,0.0137329,-0.660095,0.0128174,-1.3739,-0.0152588,0.0234985,-0.0186157,-0.0164795,0.0335693
122,0,0.000915527,0.0323486,0.0238037,0.0314331,0.027771,-0.768433,0.0109863,-1.18744,0.00854492,0.0109863,-0.0143433,0.0201416,0.0170898
122,1,0.0149536,0.0247192,0.0280762,0.038147,0.0137329,-0.680237,0.0183105,-0.62439,0.00305176,0.0152588,-0.0222778,0.0335693,0.0610352
122,2,0.012207,0.0640869,0.0274658,0.039978,0.0360107,-0.761414,0.0192261,0.430908,0.010376,0.0134277,-0.0271606,0.015564,0.0341797
122,3,-0.0378418,0.0262451,0.0192261,0.0811768,0.0198364,-0.71991,0.0296021,0.644226,0.0299072,-0.0250244,-0.0238037,0.017395,0.0714111
122,4,0.015564,0.0259399,0.0476074,0.0280762,0.0265503,-0.904236,0.0180054,1.86951,0.0152588,0.0189209,-0.0265503,-0.0149536,0.017395
123,0,0.0378418,0.0152588,0.0717163,0.0427246,0.055542,-0.861511,0.0125122,1.97479,0.00793457,0.00671387,-0.0137329,0.0335693,0.0692749
123,1,-0.0289917,0.0265503,0.0234985,0.0128174,0.0286865,-0.635681,0.0137329,2.72278,0.00915527,0.0137329,-0.0247192,0.0149536,0.0183105
123,2,0.0338745,0.0296021,0.0469971,0.0146484,0.0305176,-0.243225,0.0241089,3.22815,0.010376,0.0210571,-0.0250244,0.0213623,0.0109863
123,3,0.0198364,-0.00549316,0.0561523,0.0314331,0.0396729,-0.0772095,0.0186157,3.31482,0.0247192,0.00946045,-0.0231934,0.0195312,0.032959
123,4,0.0134277,0.0616455,0.0265503,0.0283813,-0.000915527,-0.18219,0.0241089,2.71912,0.0177002,0.0219727,0,0.022583,0.0259399
124,0,0.0012207,0.0152588,0.0137329,0.0375366,0.0286865,-0.153809,0.0317383,3.07434,-0.022583,0.000610352,-0.00579834,0.0088501,0.0341797
124,1,0.0140381,0.0183105,0.0158691,0.0268555,-0.00701904,0.0161743,0.0231934,3.35541,0.0259399,0.0210571,-0.00610352,0.00579834,0.0244141
124,2,-0.0363159,0.0192261,0.0265503,-0.0219727,0.0222778,-0.0363159,0.0402832,3.08228,0.0177002,0.00213623,0.020752,0.0341797,0.0299072
124,3,0.0588989,0.0238037,0.0256348,0.0415039,0.0375366,-0.027771,0.0305176,3.30353,0.0195312,0.0256348,-0.0128174,0.0253296,0.0296021
124,4,0.0112915,0.0231934,0.0228882,0.0723267,0.0140381,-0.0579834,0.0619507,3.31512,0.0216675,0.0161743,-0.0317383,0.0149536,0.0213623
125,0,0.0128174,0.0210571,0.0280762,0.00823975,0.043335,-0.050354,0.0213623,3.14789,0.020752,0.0244141,-0.00671387,0.0134277,0.00762939
125,1,0.000305176,0.0152588,0.0158691,0.020752,0.0350952,-0.0253296,0.0177002,2.64984,0.0366211,0.0372314,-0.0106812,0.0131226,0.0161743
125,2,0.0332642,0.0305176,0.0228882,0.0445557,0.0338745,-0.0265503,-0.00640869,3.0188,0.0302124,-0.0170898,-0.0259399,0.00854492,-0.0161743
125,3,0.0201416,0.0189209,0.0366211,0.0341797,0.0848389,-0.0286865,0.0204468,3.09082,0.0201416,0.0143433,-0.010376,0.00732422,0.039978
125,4,0.0393677,0.0164795,0.0231934,0.0378418,0.0265503,-1.01959,0.0405884,2.20428,-0.00579834,0.0408936,-0.0088501,0.0161743,0.0268555
126,0,-0.0125122,0.0256348,0.0219727,0.0717163,0.0323486,-2.49756,0.090332,2.73987,0.0186157,0.0732422,-0.0405884,0.0137329,0.0799561
126,1,0.0265503,0.0140381,0.0201416,0.0372314,0.0286865,-2.64038,0.0308228,2.66968,0.0164795,-0.000610352,-0.0222778,0.0189209,0.03479
126,2,0.0213623,0.0109863,0.0772095,0.0378418,0.0183105,-1.7569,0.0323486,3.22296,0.00976562,0.00427246,-0.0265503,0.0106812,0.0167847
126,3,-0.015564,0.00549316,0.0320435,0.0192261,0.0231934,-1.6098,0.0222778,3.26538,0.0204468,-0.0161743,-0.0106812,0.00610352,-0.000610352
126,4,0.0228882,0.0283813,0.0369263,0.0302124,0.0579834,-0.241394,0.0204468,3.16345,0.0228882,0.0088501,-0.0149536,0.00976562,0.0421143
127,0,0.00457764,0.0143433,0.0265503,0.0262451,0.0430298,0.421448,0.0393677,3.13324,0.0143433,0.0183105,-0.0186157,0.0296021,0.000610352
127,1,0.00244141,0.0164795,0.0244141,0.0259399,0.0262451,2.03827,0.039978,2.72705,0.0222778,0.00274658,-0.0296021,0.0012207,-0.00701904
127,2,0.0128174,0.0128174,0.0149536,0.0283813,0.0195312,1.57471,0.0350952,3.00537,0.0283813,0.00305176,-0.0210571,0.00152588,-0.0192261
127,3,0.00579834,-0.00671387,0.0265503,0.0338745,0.0360107,-1.26892,0.0360107,2.42676,0.0152588,0.00183105,-0.0314331,0.00823975,0.00457764
127,4,0.017395,0.0161743,0.0250244,0.0360107,0.0341797,-2.61383,0.0411987,1.89209,0.0164795,0.0189209,-0.0585938,0.0192261,-0.000305176
128,0,0.010376,0.0161743,0.0158691,0.0231934,0.0366211,-2.69653,0.038147,1.40228,0.0198364,0.00396729,-0.0247192,0.00854492,0.0109863
128,1,0.0228882,0.00305176,0.0253296,0.0146484,0.0448608,-2.46979,0.0366211,1.18317,0.0170898,0.00915527,-0.0244141,0.0201416,0.00183105
128,2,0.0201416,0.0189209,0.0350952,0.0137329,0.0357056,-2.44232,0.0216675,1.27625,0.06073,-0.00549316,-0.0149536,0.010376,0.00854492
128,3,0.017395,0.0476074,0.0195312,0.0259399,0.0299072,-1.9101,0.0213623,1.6037,0.00579834,0.0119019,-0.0247192,0.00335693,0.012207
128,4,0.0231934,0.0317383,0.00274658,0.0170898,0.0247192,-0.852966,0.0308228,-2.8479,0.0198364,0.0137329,-0.0140381,0.0448608,0.00457764
129,0,0.0231934,0.00244141,0.0228882,0.0515747,0.0302124,0.316162,0.0231934,-3.17322,0.0198364,0.00488281,-0.0256348,-0.0415039,0.00946045
129,1,0.0134277,0.0158691,0.0216675,0.0213623,0.0271606,1.29517,0.0479126,-0.756531,0.071106,0.00244141,-0.0256348,0.0222778,0.0106812
129,2,0.0183105,0.00793457,0.0088501,0.0213623,0.0112915,1.46881,0.0308228,2.89459,0.0115967,0.012207,-0.00366211,0.010376,0.00427246
129,3,0.0131226,0.0241089,0.0201416,0.00701904,0.0720215,2.42096,0.0268555,2.88849,0.0106812,0.0128174,-0.0146484,0.0125122,0.0115967
129,4,0.020752,0.0170898,0.0112915,0.0250244,0.0140381,3.11615,0.0369263,2.78198,0.0378418,0.0247192,-0.00915527,0.0106812,0.0415039
130,0,0.0213623,0.00213623,0.0253296,0.0302124,0.0354004,3.19733,0.0341797,2.72095,0.0143433,0.0192261,-0.012207,0.0198364,0.0189209
130,1,0.0183105,0.0198364,0.0198364,0.0363159,0.0210571,2.89886,0.020752,2.64893,0.0158691,0.00549316,-0.0100708,0.0088501,0.0106812
130,2,0.0134277,0.0137329,0.0259399,0.0302124,0.0302124,2.78198,0.0320435,2.59583,0.0201416,0.0180054,-0.00946045,0.012207,0.00305176
130,3,0.0286865,0.0115967,0.0201416,0.0393677,0.0244141,2.57477,0.0418091,2.53113,0.0189209,0.00610352,0.00610352,0.00946045,0.0125122
130,4,0.010376,0.0149536,0.022583,0.043335,0.0292969,2.49298,0.0408936,2.52441,0.0213623,-0.015564,-0.0164795,0.0128174,-0.0149536
131,0,0.00335693,0.0143433,0.0857544,0.0296021,0.0283813,2.33795,0.032959,2.42462,-0.0253296,0.0299072,-0.010376,0.0509644,0.0192261
131,1,0.00793457,0.0195312,0.0247192,0.0195312,0.055542,2.3526,0.0375366,2.38739,0.0100708,0.0198364,-0.0320435,0.0161743,0.0259399
131,2,0.0158691,0.0256348,0.0161743,0.0192261,0.0256348,2.11456,0.0485229,0.862122,0.00335693,0.0161743,-0.0296021,0.010376,0.0372314
131,3,0.0201416,0.00549316,0.0271606,0.0201416,0.0259399,1.8396,0.0369263,0.540161,0.0213623,0.0100708,-0.0140381,0.0106812,0.0369263
131,4,0.0146484,-0.00152588,0.00579834,0.0125122,0.0262451,1.59729,0.0357056,0.284729,0.0210571,0.0247192,-0.0228882,0.0234985,0.00549316
132,0,0.0405884,-0.050354,0.0115967,0.022583,0.078125,1.45508,0.0280762,-0.194092,0.0219727,0.0210571,-0.0201416,0.0238037,0.0140381
132,1,0.0213623,0.0250244,0.0088501,0.0286865,0.0195312,1.4151,0.0332642,-0.812683,0.010376,0.0088501,0.00671387,0.0115967,0.00396729
132,2,0.0158691,0.00244141,0.0183105,0.0302124,0.0308228,1.22833,0.0366211,-1.05347,0.0149536,0.00976562,-0.0219727,0.0521851,0.0271606
132,3,0.00671387,0.0152588,0.0363159,0.0820923,0.0384521,0.977783,0.0775146,-1.24451,0.0222778,-0.0198364,-0.0262451,0.010376,0.0268555
132,4,0.0216675,0.0164795,-0.00488281,0.0283813,0.020752,0.796814,0.0466919,-1.49292,0.0274658,0.0164795,-0.0177002,0.057373,0.0280762
133,0,0.0335693,0.0125122,0.0164795,0.0259399,0.0317383,0.782776,0.0604248,-1.33606,0.022583,0.0689697,-0.0213623,0.00823975,-0.0311279
133,1,0.0180054,0.0125122,0.0210571,0.0244141,0.0262451,0.624084,0.0323486,-1.42944,0.0183105,-0.0222778,-0.0250244,0.017395,0.0128174
133,2,0.0204468,0.010376,0.0131226,0.0881958,0.0201416,0.48645,0.0772095,-1.60522,0.0195312,0.00610352,-0.0234985,0.0131226,0.0314331
133,3,0.0283813,0.0192261,0.00793457,0.0177002,0.0411987,0.403748,0.0222778,-1.84265,0.00305176,0.0140381,0.00793457,0.0354004,0.0448608
133,4,0.0204468,0.0228882,0.0210571,0.0350952,0.0378418,0.335693,0.0250244,-1.5332,0.0546265,0.0369263,-0.0195312,0.0259399,0.0323486
134,0,0.0152588,0.00335693,0.00915527,0.0280762,0.038147,0.24353,0.0119019,-1.6333,0.0302124,0.0363159,-0.020752,0.0119019,0.0259399
134,1,0.0268555,0.0100708,-0.00183105,0.0125122,0.0418091,0.180664,0.0323486,-1.90063,0.043335,0.0265503,-0.0119019,0.0158691,0.0735474
134,2,0.0100708,0.0180054,0.0305176,0.0167847,0.032959,0.148926,0.027771,-1.44592,0.0357056,0.0128174,-0.0219727,0.0308228,0.0183105
134,3,0.0195312,0.0088501,0.022583,0.0299072,0.0238037,0.0985718,0.00549316,-1.61194,0.00213623,0.0128174,-0.0186157,-0.0216675,0.0219727
134,4,0.00946045,-0.000305176,0.00823975,0.020752,0.0271606,0.0418091,0.0296021,-1.61957,0.00579834,0.0222778,-0.0244141,0.0115967,0.0201416
135,0,0.0195312,0.0112915,0.0143433,0.0231934,0.0283813,-0.0411987,0.0256348,-1.30432,-0.0128174,0.0164795,-0.0384521,0.0164795,0.0305176
135,1,-0.0146484,0.0137329,0.0152588,-0.0195312,0.0271606,-0.038147,0.0576782,-1.07544,0.0268555,0.0775146,-0.0219727,0.0189209,0.0674438
135,2,0.0192261,0.00579834,0.00335693,0.0164795,0.0311279,-0.083313,0.0326538,-0.942688,0.00518799,0.0234985,-0.0289917,-0.0289917,0.0247192
135,3,0.0332642,0.0106812,0.0146484,-0.0262451,0.039978,-0.136719,0.0369263,-1.0199,0.0296021,0.0195312,-0.0231934,0.0112915,0.0241089
135,4,0.0265503,0.00976562,0.0137329,0.015564,0.0765991,-0.172119,0.0250244,-0.42511,0.0311279,0.0231934,-0.0149536,0.0201416,0.0247192
136,0,0.0247192,0.00823975,0.00732422,0.0180054,0.0119019,-0.201111,0.0320435,-0.258179,0.0302124,0.0161743,-0.0146484,0.00274658,0.0195312
136,1,0.0106812,0.0213623,-0.0360107,0.0177002,0.0244141,-0.148926,0.043335,-0.105591,0.0305176,0.0216675,-0.00274658,0.0131226,0.00549316
136,2,0.0146484,0.0115967,0.015564,0.0308228,0.0149536,-0.241394,0.0308228,-0.0564575,0.0363159,0.0134277,-0.0274658,0.00915527,0
136,3,0.00946045,0.00732422,0.00183105,0.00549316,0.032959,-0.243225,0.0436401,-0.0299072,0.0302124,-0.0213623,-0.0271606,0.00183105,0.020752
136,4,0.0186157,0.0234985,0.0161743,0.0170898,-0.0628662,-0.291138,0.0247192,0.0735474,0.0216675,0.0167847,-0.0192261,0.0137329,0.0177002
137,0,-0.0198364,0.0271606,0.0219727,0.0177002,0.0167847,-0.295715,0.0860596,0.212402,0.0213623,0.0686646,-0.045166,0.0149536,-0.0219727
137,1,0.00793457,0.00518799,-0.00152588,0.0198364,0.010376,-0.299377,0.0372314,0.155029,0.0506592,0.0253296,-0.0152588,0.00183105,0.0195312
137,2,0.0244141,0.020752,0.0152588,0.0244141,-0.017395,-0.297852,0.0289917,0.214233,0.0146484,0.0213623,-0.0311279,0.0366211,0.0393677
137,3,0.00579834,0.0646973,0.0180054,0.0131226,0.0161743,-0.280457,0.0524902,0.176392,0.0286865,0.012207,-0.0143433,0.00427246,0.0189209
137,4,0.0167847,-0.0411987,0.00701904,0.0177002,-0.00274658,-0.249329,0.0222778,0.211487,0.0112915,0.0152588,-0.0180054,0.0274658,0.0183105
138,0,0.0421143,0.00976562,0.017395,0.0494385,0.0332642,-0.271912,0.0613403,0.192261,0.0274658,0.0314331,-0.0299072,0.0195312,0.0222778
138,1,0.0354004,0.00854492,0.0149536,0.0167847,0.0204468,-0.231628,0.0222778,0.184937,0.0189209,0.0265503,-0.0134277,0.00793457,0.0256348
138,2,0.0152588,0.010376,0.0268555,0.0241089,0.015564,-0.332947,0.0296021,-0.0982666,0.0161743,0.0274658,0.0198364,0.0012207,0.017395
138,3,0.0256348,0.00305176,0.0112915,0.0366211,0.0390625,-0.385742,0.0512695,0.396118,0.0204468,0.0283813,-0.0192261,0.0164795,0.0247192
138,4,0.0323486,0.0274658,0.0167847,0.0341797,0.017395,-0.39978,-0.00427246,0.321045,0.0286865,-0.0485229,-0.0164795,0.0170898,-0.0305176
139,0,0.00640869,0.0128174,0.027771,0.0585938,0.0323486,-0.397949,0.0088501,0.241394,0.0366211,0.0204468,-0.0250244,0.00549316,0.0268555
139,1,-0.0137329,0.0131226,0.00671387,-0.0292969,-0.00549316,-0.388794,0.0598145,0.369263,0.0186157,0.0201416,-0.0234985,0.00976562,0.0323486
139,2,0.0402832,0.0112915,0.000305176,0.0183105,0.0335693,-0.379333,0.0286865,0.640869,0.0320435,0.0344849,-0.0228882,0.00518799,0.0170898
139,3,0.0219727,0.0177002,0.0012207,0.0326538,0.0106812,-0.35614,0.0253296,0.460815,0.032959,0.0808716,-0.0137329,0.0158691,0.0698853
139,4,0.0363159,0.0656128,0.000915527,0.0250244,0.0259399,-0.375366,0.0234985,-0.324097,0.0350952,0.0311279,-0.0164795,-0.0180054,0.0228882
140,0,0.0222778,0.0256348,-0.00823975,0.0192261,0.0125122,-0.367126,0.0106812,0.347595,0.0210571,0.0344849,-0.0280762,0.0271606,0.0183105
140,1,0.0183105,0.00732422,-0.020752,0.0158691,0.0195312,-0.372009,0.0354004,0.201416,0.0375366,0.0256348,-0.0305176,0.0341797,-0.00244141
140,2,0.0646973,0.0161743,0.0100708,0.0387573,0.0143433,-0.350647,-0.0219727,0.231628,0.0265503,0.0439453,-0.0482178,0.0161743,0.0341797
140,3,0.0158691,0.0128174,0.00366211,0.027771,0.0198364,-0.332031,0,0.124207,0.0222778,0.00305176,-0.0372314,0.0289917,0.032959
140,4,0.0213623,0.0198364,0.0198364,0.00793457,-0.015564,-0.330505,0.0219727,0.397949,0.0192261,0.0302124,-0.0576782,0.0405884,0.0198364
141,0,0.0192261,0.0180054,0.0601196,0.00946045,0.0335693,-0.297852,0.017395,0.249329,-0.0323486,0.0253296,-0.0311279,0.0598145,0.0210571
141,1,0.0137329,0.00549316,0.00762939,0.00457764,0.0198364,-0.311279,0.0415039,-0.0686646,0.0299072,0.0421143,-0.0253296,0.020752,0.0228882
141,2,0.0213623,0.0149536,-0.0115967,0.0128174,0.0204468,-0.339661,0.0335693,0.471497,0.0723267,0.0241089,-0.0341797,0.00579834,0.0323486
141,3,0.022583,0.0189209,-0.0213623,0.00457764,-0.00976562,-0.273132,0.0387573,0.267334,0.0253296,0.0100708,-0.027771,0.0222778,0.0210571
141,4,0.0299072,0.0274658,-0.0408936,0.0128174,0.0256348,-0.325623,0.0183105,0.346985,0.0317383,0.0189209,-0.0164795,0.017395,0.020752
142,0,0.0189209,0.0299072,-0.0234985,0.00671387,0.0289917,-0.32135,0.0262451,0.154724,-0.020752,0.0262451,-0.0137329,-0.0198364,0.0152588
142,1,0.0286865,0.0448608,0.00701904,0.0112915,0.0341797,-0.249329,0.0286865,0.137024,0.038147,0.0244141,-0.0100708,0.0100708,0.0128174
142,2,0.039978,0.0152588,0.00488281,0.0231934,-0.000915527,-0.259705,0.0247192,0.239563,0.0497437,0.0265503,-0.0289917,0.0177002,0.015564
142,3,0.0354004,0.0164795,0.0231934,0.00579834,0.0424194,-0.250244,0.0332642,-0.0653076,0.0463867,0.0314331,-0.0137329,0.0427246,0.0106812
142,4,0.0335693,0.0222778,0.015564,0.0198364,0.0393677,-0.231628,0.0274658,0.782471,0.0210571,0.0271606,-0.0250244,0.0222778,0.0216675
143,0,0.0244141,0.0234985,0.000915527,-0.00396729,-0.0140381,-0.245667,0.00640869,0.102844,0.0372314,0.0405884,-0.0286865,0.0259399,0.0253296
143,1,0.0167847,0.0274658,0.0100708,0.00854492,0.0210571,-0.24353,0.0140381,0.142517,0.0137329,0.0247192,-0.027771,0.0836182,0.015564
143,2,0.0311279,0.062561,0.00244141,0.015564,0.0238037,-0.274048,0.0210571,-0.122986,0.0274658,0.0231934,-0.0201416,0.010376,0.0137329
143,3,0.0302124,0.0189209,0.0106812,0.0109863,0.0265503,-0.253296,0.0323486,0.238647,0.0430298,0.0152588,-0.00152588,0.00579834,-0.00335693
143,4,0.015564,0.0332642,0.0192261,0.0112915,0,-0.261841,0.0198364,-0.0250244,0.00701904,0.0271606,-0.0311279,0.0164795,0.00793457
144,0,0.0369263,0.0256348,0.0128174,0.0231934,0.0170898,-0.227966,0.0250244,-0.664062,0.0222778,-0.0289917,-0.0384521,0.0183105,0.0274658
144,1,-0.015564,0.020752,0.0125122,-0.00274658,0.0158691,-0.223999,0.0112915,-0.105591,0.0265503,0.0549316,-0.0314331,0.00610352,0.0112915
144,2,0.0311279,0.015564,0.00640869,-0.00579834,0.00671387,-0.25238,0.0430298,-0.0906372,0.0457764,0.027771,-0.0354004,0.0164795,0.0286865
144,3,0.0253296,0.00366211,0.00610352,0.00579834,0.0369263,-0.231934,0.0234985,-0.172729,0.0366211,0.0305176,-0.0137329,0.032959,0.0177002
144,4,0.0244141,-0.0265503,0.00457764,0.0152588,0.010376,-0.226746,-0.00335693,-0.0814819,0.0106812,0.0228882,-0.0280762,0.0177002,0.0219727
145,0,0.0302124,0.0268555,-0.00946045,0.0146484,0.012207,-0.167847,0.0222778,0.200195,0.0247192,0.0283813,-0.0198364,0.0158691,0.0241089
145,1,0.0823975,0.0326538,0.0109863,-0.0543213,0.00701904,-0.19989,0.0643921,-0.263062,0.0299072,0.0396729,-0.0161743,0.0234985,0.017395
145,2,0.0369263,0.020752,0.0134277,0.0292969,0.0149536,-0.177002,-0.00183105,-0.61615,0.0460815,0.0335693,-0.0140381,0.0418091,0.0192261
145,3,0.0088501,0.0189209,0.00823975,0.00213623,0.0140381,-0.202637,0.0564575,0.0274658,0.0448608,0.0338745,-0.0341797,0.0396729,0.0302124
145,4,0.0231934,0.00488281,0.0149536,0.0112915,0.00671387,-0.169067,0.0311279,-0.0973511,0.022583,0.0234985,-0.0344849,0.0259399,0.0164795
146,0,0.0558472,0.0180054,0.0201416,0.0112915,0.010376,-0.1651,-0.0396729,-0.0198364,0.0308228,0.0518799,-0.0418091,0.0357056,0.0216675
146,1,0.0296021,0.0262451,0.032959,0.00518799,0.017395,-0.157776,0.00488281,-0.143433,0.0149536,0.0262451,-0.0354004,0.0289917,0.0259399
146,2,0.0292969,0.0210571,0.00366211,0.0262451,-0.00793457,-0.162048,0.0128174,-0.0900269,0.022583,0.0317383,-0.0250244,0.027771,0.0259399
146,3,0.00946045,0.0204468,0.0262451,0.00274658,0.0134277,-0.148315,0.032959,-0.274658,-0.00274658,0.0543213,-0.027771,0.0250244,0.0170898
146,4,0.0314331,0.0283813,0.0375366,0.0228882,0.0213623,-0.146484,-0.0231934,-0.774841,0.00762939,0.0527954,-0.0363159,0.0253296,0.0668335
147,0,0.039978,0.0289917,0.0131226,0.0195312,0.0485229,-0.139465,0.0213623,-0.224304,0.0265503,0.0405884,-0.0344849,0.022583,0.0170898
147,1,0.0213623,0.0140381,0.022583,-0.000305176,0.0143433,-0.0717163,0.0375366,-0.293884,0.0720215,0.0308228,-0.0289917,0.0344849,0.0201416
147,2,0.0366211,0.0244141,0.020752,0.0112915,0.0143433,-0.136414,0.017395,-0.26123,0.020752,0.0161743,-0.027771,0.0177002,0.0204468
147,3,0.0292969,0.0192261,0.0317383,0.00579834,0.00152588,-0.1297,0.0152588,-0.380859,0.0213623,0.0283813,-0.0259399,0.0183105,0.0296021
147,4,0.0302124,0.0204468,0.0241089,0.00793457,-0.00762939,-0.13092,0.0134277,-0.132446,0.0335693,0.0143433,-0.0195312,0.0106812,0.0228882
148,0,0.0283813,0.0137329,0.0262451,0.00793457,0.0146484,-0.140686,0.0170898,-0.201111,0.050354,0.0344849,-0.0219727,0.0283813,0.0137329
148,1,0.0396729,0.0088501,0.0384521,0.0198364,0.0418091,-0.113525,0.0134277,-0.84259,0.0131226,0.0271606,-0.0637817,0.012207,0.0161743
148,2,0.0338745,0.0286865,0.00915527,-0.00183105,0.0088501,-0.119934,0.0335693,-0.114441,0.03479,0.050354,-0.032959,0.0741577,0.00366211
148,3,0.0292969,0.0198364,0.0161743,0.0164795,0.00579834,-0.09552,0.0213623,0.0244141,0.0421143,0.0469971,-0.0360107,0.0204468,0.017395
148,4,0.0292969,0.0198364,0.0875854,0.0143433,0.00366211,-0.160522,0.00854492,-0.098877,0.0497437,0.0088501,-0.0296021,0.0335693,0.0204468
149,0,0.0234985,0.0231934,0.0424194,0.0311279,0.012207,-0.0787354,0.0216675,-0.0891113,0.0314331,0.0253296,-0.0158691,0.0491333,0.0689697
149,1,-0.00366211,0.0219727,0.0109863,0.0177002,0.0125122,-0.0927734,0.0137329,-0.0183105,0.0305176,0.0262451,-0.032959,0.0247192,0.0204468
149,2,0.0317383,-0.012207,0.0265503,0.010376,0.000610352,-0.119019,0.0112915,0.0601196,0.0314331,0.0332642,-0.017395,0.0357056,0.0268555
149,3,0.0222778,0.0259399,0.0537109,0.0296021,0.0213623,-0.116272,0.0250244,-0.318909,0.0201416,0.0402832,-0.017395,0.0271606,0.0439453
149,4,0.0317383,-0.00701904,0.0222778,0.0216675,0.0491333,-0.09552,0.0143433,0.263672,0.0411987,0.0323486,-0.03479,0,0.0308228
150,0,0.0161743,0.00976562,0.0170898,0.0320435,0.0140381,-0.0784302,0.0262451,0.255432,0.0610352,0.0158691,-0.0390625,0.03479,0.0338745
150,1,0.038147,0.0845337,0.0473022,0.0161743,0.067749,-0.106812,0.0244141,0.223389,0.0320435,0.0338745,-0.0344849,0.0341797,-0.00732422
150,2,0.0323486,0.0357056,0.0289917,0.0128174,0.00762939,-0.0326538,0.00701904,-0.050354,0.0332642,0.0311279,-0.027771,0.0473022,0.0268555
150,3,-0.00183105,0.0338745,0.0402832,0.03479,0.00823975,-0.114746,0.0219727,0.287781,0.0189209,0.032959,-0.0640869,0.0308228,0.0234985
150,4,0.0259399,0.0326538,0.0396729,0.00305176,0.0167847,-0.139771,0.00579834,0.299377,0.0231934,0.0384521,-0.0268555,0.0317383,0.0158691
151,0,0.0363159,0.027771,0.0201416,0.0238037,-0.00793457,-0.122375,0.022583,-0.266724,0.0256348,0.00152588,-0.0308228,0.0527954,0.0439453
151,1,0.0540161,0.0213623,0.000305176,0.0369263,0.0109863,-0.157166,0.0244141,0.244751,0.0778198,0.0296021,-0.0509644,0.0686646,0.032959
151,2,0.020752,0.0314331,0.0149536,0.0585938,0.00915527,-0.132446,0.0604248,0.0338745,0.0259399,0.0418091,-0.0448608,0.0479126,0.0247192
151,3,0.022583,0.0469971,0.0292969,0.0131226,0.0143433,-0.12146,0.0180054,-0.0485229,0.0192261,0.0228882,0,0.0180054,0.0262451
151,4,0.0308228,0.0280762,0.0283813,0.0140381,0.000915527,-0.128479,0.000610352,-0.220642,0.0317383,0.0299072,-0.0292969,0.0305176,0.0354004
152,0,0.0247192,0.038147,0.0332642,0.0195312,0.0183105,-0.140076,0.0213623,0.0579834,0.0308228,0.0302124,-0.0341797,-0.0137329,0.00335693
152,1,0.0241089,0.0177002,0.0222778,0.0143433,-0.000915527,-0.0863647,-0.0228882,-0.057373,0.0183105,-0.0378418,-0.0299072,0.0109863,0.0238037
152,2,0.045166,0.0262451,0.0177002,-0.00244141,0.0250244,-0.10437,0.0161743,-0.32074,0.022583,0.0244141,-0.0305176,0.0271606,0.0192261
152,3,0.0283813,0.0265503,0.012207,0.0128174,0.0256348,-0.0253296,0.0344849,0.284424,0.0262451,0.0814819,-0.0231934,0.0167847,-0.0241089
152,4,0.0262451,0.0338745,0.0274658,0.0128174,0.00152588,0.0360107,0.00793457,0.0646973,0.0323486,0.0228882,-0.0390625,0.0317383,0.0231934
153,0,0.0183105,0.0244141,0.0167847,0.0222778,0.0186157,0.0732422,-0.043335,-0.0628662,0.0149536,0.0189209,-0.0231934,0.0354004,0.022583
153,1,0.0283813,0.0289917,0.0231934,0.00946045,0.0198364,-0.570374,0.0186157,-0.220337,0.0262451,0.0213623,-0.055542,0.0296021,0.017395
153,2,0.0338745,0.0296021,0.0201416,0.0128174,0.0189209,-2.95959,0.0198364,-0.358887,0.0289917,0.0222778,-0.0335693,0.0506592,0.0289917
153,3,0.0286865,0.0244141,0.0192261,0.0250244,0.0134277,-2.87659,0.00549316,-0.507507,0.0256348,0.0164795,-0.0320435,-0.00732422,0.0274658
153,4,0.0271606,0.03479,0.0302124,0.0201416,0.020752,-2.84546,0.0238037,-1.0199,0.0186157,0.0241089,-0.0308228,0.0369263,0.0274658
154,0,0.0259399,0.0216675,0.0390625,0.0238037,0.0320435,-2.75208,0.0131226,-0.396729,0.0241089,0.0131226,-0.0286865,0.0234985,-0.00640869
154,1,0.0387573,0.0378418,0.0228882,0.0213623,0.0198364,-2.67761,-0.0561523,-0.431824,0.0289917,0.0128174,-0.0479126,0.0332642,0.0274658
154,2,0.0338745,0.0408936,0.0158691,0.0250244,0.0161743,-2.63428,0.0115967,-0.518799,0.0604248,0.0244141,-0.043335,0.0454712,0.0408936
154,3,0.0256348,0.0256348,0.0473022,0.0219727,-0.00732422,-2.49207,0.0219727,-0.714111,0.0177002,0.0265503,-0.0271606,0.0390625,0.0274658
154,4,0.0335693,0.0283813,0.0286865,0.0143433,0.0131226,-2.38586,0.00152588,-0.567017,0.0296021,0.00579834,-0.027771,0.0640869,0.0527954
155,0,0.0317383,0.0357056,0.0338745,0.0189209,0.0137329,-1.61865,0.0131226,-0.604553,0.00610352,0.0338745,-0.0271606,0.0305176,0.0265503
155,1,0.0201416,0.0436401,0.00946045,0.0357056,0.043335,-0.887451,0.022583,-1.01166,-0.00366211,0.0323486,-0.0256348,0.0384521,0.0228882
155,2,0.043335,0.0222778,0.0286865,0.022583,0.0177002,-0.640259,0,-0.393066,0.0131226,0.0543213,-0.0250244,0.038147,0.0323486
155,3,0.0366211,0.0454712,0.0357056,0.0311279,0.0637817,-0.588989,0.012207,-0.382996,0.00823975,0.0317383,-0.0283813,0.0234985,0.0280762
155,4,0.0387573,0.0219727,0.0836182,0.0244141,0.0262451,-0.03479,0.022583,-0.338745,0.015564,0.0170898,-0.0466919,0.0234985,0.0012207
156,0,0.0302124,0.0308228,0.0262451,0.0146484,0.0149536,-0.187988,0.0402832,-0.516052,0.022583,0.00610352,-0.0375366,0.085144,0.0445557
156,1,0.0332642,0.0296021,0.0177002,0.0344849,0.0189209,-0.127258,0.0244141,-0.498047,0.0195312,0.0216675,-0.0375366,0.0088501,0.0280762
156,2,0.038147,0.0427246,0.0274658,0.0152588,0.0241089,0.104065,0.0180054,-0.592651,0.0247192,0.0143433,-0.0350952,0.0271606,0.0250244
156,3,0.0302124,0.0302124,0.0299072,0.0424194,0.0234985,0.634766,0.0170898,-1.03577,0.0186157,0.0158691,-0.0283813,0.0314331,0.050354
156,4,0.0344849,0.0405884,0.0338745,0.0158691,0.0265503,1.36536,0.0131226,-0.39978,0.00854492,0.015564,-0.065918,0.0421143,0.0341797
157,0,0.0421143,0.0341797,0.0396729,0.0210571,0.0164795,1.12213,0.0134277,-0.408936,0.0140381,0.015564,-0.0354004,0.0231934,0.0357056
157,1,0.0219727,0.0201416,0.0201416,0.0238037,0.0921631,1.16943,0.0283813,-0.529175,0.0286865,0.0137329,-0.0259399,0.0268555,0.012207
157,2,0.0283813,0.0323486,0.03479,0.0234985,0.0244141,1.14075,0.00427246,-0.478516,0.0280762,0.00854492,-0.0311279,0.0292969,0.0210571
157,3,0.0354004,0.0424194,0.0234985,0.0384521,0.0271606,0.975952,0.0274658,-0.0900269,0.0198364,-0.0183105,-0.0234985,0.0219727,0.0274658
157,4,0.0213623,0.03479,0.0320435,0.00152588,0.020752,0.94574,0.0604248,-0.282898,0.0134277,0.0149536,-0.0241089,0.00640869,0.0601196
158,0,0.0439453,0.0170898,0.020752,0.0213623,0.0170898,1.08337,0.0189209,-0.718079,0.0271606,0.0195312,-0.0241089,-0.0363159,0.0476074
158,1,0.043335,0.0253296,0.0265503,0.0177002,0.0143433,1.28204,0.0204468,-0.0854492,0.0115967,0.010376,-0.0558472,-0.0152588,0.0320435
158,2,0.0335693,0.0320435,0.0238037,0.0177002,0.0250244,1.32385,0.0231934,-0.289001,0.0100708,0.0195312,-0.0280762,0.0088501,0.0210571
158,3,0.0869751,0.0228882,0.0296021,0.0283813,0.0262451,1.11938,-0.00518799,-0.406494,0.00701904,0.0305176,-0.0109863,0.000610352,0.0302124
158,4,0.0167847,0.039978,0.0323486,0.020752,0.0234985,0.829163,-0.0012207,-0.293884,0.012207,0.0143433,-0.0204468,0.000610352,0.0445557
159,0,0.0296021,0.0280762,0.0299072,0.0363159,0.0354004,0.796204,0.0161743,-0.273438,0.00915527,0.0408936,-0.00640869,0.0198364,-0.0317383
159,1,0.0228882,0.0262451,0.0338745,0.0372314,0.0286865,0.538635,0.010376,-0.476685,0.0088501,0.0241089,-0.0259399,0.012207,0.0253296
159,2,0.0192261,0.0311279,0.0338745,-0.0109863,0.0317383,0.569153,-0.0311279,-0.69397,0.0262451,0.0259399,-0.0283813,0.0234985,0.0344849
159,3,0.010376,0.0302124,0.0344849,0.03479,0.0253296,0.623169,0.0241089,0.146484,0.0259399,0.0222778,-0.0238037,0.03479,0.0167847
159,4,0.0369263,0.00854492,0.0146484,0.0219727,0.0268555,0.663757,0.0186157,0.216064,0.0253296,0.0137329,-0.0247192,0.0143433,0.0283813
160,0,0.0778198,0.0125122,0.0354004,0.0265503,0.0262451,0.763855,0.0198364,0.15625,0.010376,0.00762939,-0.0323486,0.0262451,0.0222778
160,1,0.0216675,0.0112915,0.0323486,0.0332642,0.0283813,0.678711,0.015564,-0.0488281,0.00793457,0.0738525,-0.0311279,0.0244141,0.0900269
160,2,0.0167847,0.0341797,-0.015564,0.0268555,0.027771,0.690308,0.00976562,0.0167847,-0.0506592,0.0134277,-0.0256348,-0.0384521,0.0317383
160,3,0.0186157,0.0201416,0.0350952,0.0354004,0.027771,0.605774,0.0311279,0.0643921,-0.043335,0.0268555,-0.0250244,-0.0350952,0.0274658
160,4,0.032959,0.0320435,0.0289917,0.0253296,0.0418091,0.762634,0.0256348,-0.374451,-0.0152588,0.0222778,-0.0137329,-0.0195312,0.0442505
161,0,0.0158691,0.0427246,0.0283813,0.0250244,0.0088501,0.363159,0.0228882,0.0195312,0.0234985,0.0262451,-0.0180054,0.0149536,0.0296021
161,1,-0.000305176,0.0253296,0.0158691,0.0698853,0.0320435,0.294495,0.027771,-0.0997925,0.0189209,0.0177002,-0.00244141,0.0305176,0.0317383
161,2,0.0308228,0.0274658,-0.0189209,0.0314331,0.0296021,0.284119,0.0216675,0.00396729,0.0613403,0.00946045,-0.0320435,0.0170898,0.0314331
161,3,0.0234985,0.0192261,0.0244141,0.0405884,0.0222778,0.386353,-0.0189209,-0.0354004,0.0137329,0.0213623,-0.0354004,0.0152588,0.0323486
161,4,0.0354004,0.0231934,0.0183105,0.0250244,0.00183105,0.434265,0.0189209,-0.0585938,0.0109863,0.0259399,0.000610352,0.0241089,0.0222778
162,0,0.022583,0.0228882,0.0198364,0.0274658,0.00457764,0.131836,0.0259399,-0.166626,0.0332642,0.0222778,-0.0180054,0.0317383,0.0326538
162,1,0.0344849,0.0372314,0.0323486,0.0216675,0.0436401,0.177307,0.0280762,-0.426636,0.00854492,0.0177002,-0.0201416,0.0482178,0.0253296
162,2,0.0219727,0.0280762,0.0274658,0.0164795,0.0338745,0.176697,0.0109863,-0.427246,0.0378418,0.0292969,-0.0247192,0.0317383,0.0405884
162,3,0.0213623,0.0311279,0.050354,0.0390625,0.0366211,0.184631,0.0125122,-0.415955,0.0164795,0.0143433,-0.0195312,0.0634766,0.0305176
162,4,0.0231934,0.0521851,0.0180054,0.0274658,0.020752,0.178528,0.0219727,-0.389404,0.0164795,0.0320435,-0.038147,0.0344849,0.0442505
163,0,0.0308228,0.0305176,0.0286865,0.0326538,0.0341797,0.156555,0.00396729,-0.383911,0.00946045,-0.00671387,-0.0671387,0.0299072,0.0390625
163,1,0.0213623,0.0158691,0.0466919,0.0238037,-0.00244141,0.162964,0.0192261,-0.363464,0.0259399,0.0131226,-0.0338745,0.0216675,0.0369263
163,2,0.0213623,0.0247192,0.0387573,0.0289917,-0.012207,0.161743,0.0241089,-0.402527,0.0158691,0.0131226,-0.088501,-0.0411987,0.0234985
163,3,0.0390625,0.0213623,0.022583,0.0289917,0.0418091,0.237427,0.0161743,-1.14624,0,0.00457764,-0.0265503,-0.0238037,0.0442505
163,4,0.0283813,0.0204468,0.0164795,0.0192261,0.0265503,0.153503,0.0128174,-0.650635,0.0180054,0.0131226,-0.0283813,-0.0241089,0.0344849
164,0,0.0897217,0.0112915,0.0161743,0.0509644,0.0213623,0.269165,0.0213623,-0.753174,0.00762939,0.0140381,-0.0424194,-0.0344849,0.0286865
164,1,0.0439453,0.0131226,0.032959,0.0445557,0.0280762,0.237427,0.0323486,-0.777588,0.0250244,0.0115967,-0.0262451,-0.0244141,0.0466919
164,2,0.0384521,0.0134277,0.0317383,0.0247192,0.0280762,0.254211,0.0192261,-1.03607,0.0149536,0.00549316,-0.0262451,-0.0238037,0.0250244
164,3,-0.0219727,0.0271606,0.0387573,0.00213623,0.0296021,0.39093,0.00213623,-1.03241,0.000915527,0.00976562,-0.0622559,-0.0177002,0.00793457
164,4,0.0158691,0.0238037,0.0231934,-0.00823975,0.0299072,0.480042,-0.0170898,-1.0788,0.0134277,-0.0323486,-0.0201416,-0.0308228,0.0378418
165,0,0.00823975,0.0177002,0.0299072,0.0521851,0.0445557,0.551453,0.0219727,-1.97845,0.00854492,0.0128174,-0.0158691,0.000305176,0.0250244
165,1,-0.0119019,0.0302124,0.0274658,0.0930786,0.0244141,0.592346,0.0112915,-1.5863,0.0167847,0.0186157,-0.0146484,0.027771,0.0204468
165,2,0.0152588,0.0192261,0.0280762,0.0286865,-0.0170898,0.427856,0.0247192,-2.12921,0.0119019,0.012207,-0.00946045,0.0482178,0.0265503
165,3,0.0198364,0.0387573,0.0213623,0.090332,0.0408936,0.794983,0.0338745,-1.81152,0.0088501,-0.0509644,-0.00579834,0.0354004,0.0308228
165,4,0.00701904,-0.0308228,0.0177002,0.0341797,0.027771,0.821533,0.0259399,-1.83197,0.0112915,-0.000305176,-0.0170898,0.0338745,0.0317383
166,0,0.00854492,0.0152588,0.0723267,0.0375366,0.0216675,0.489197,0.0317383,-1.75262,0.020752,0.0344849,-0.0088501,0.0222778,0.0259399
166,1,0.022583,0.0164795,0.038147,0.0259399,0.00823975,0.298157,0.0115967,-1.60004,-0.0302124,0.010376,-0.0189209,0.0857544,0.032959
166,2,0.0564575,0.0369263,0.0366211,0.0302124,0.0265503,0.294495,0.0384521,-1.79504,0.0161743,0.0317383,-0.00305176,0.0390625,0.0134277
166,3,0.0271606,0.0265503,0.0375366,0.0454712,0.0216675,0.370789,-0.0305176,-0.852966,0.00274658,0.043335,-0.0100708,0.0262451,0.0228882
166,4,0.0360107,0.0305176,0.0201416,0.0326538,0.0219727,0.31189,0.0183105,-0.396729,0.0112915,0.0131226,0.0195312,0.0369263,0.0308228
167,0,0.012207,0.0167847,0.00244141,0.0198364,0.0274658,0.248108,0.0238037,-0.175781,0.0149536,0.00732422,-0.0219727,0.0210571,0.0305176
167,1,0.0100708,0.0570679,0.0134277,0.0314331,0.0167847,0.0302124,0.0183105,-0.215759,0.0247192,0.0204468,-0.0201416,0.0390625,0.0213623
167,2,0.0332642,0.012207,-0.0186157,0.0286865,0.0384521,-0.0466919,0.0158691,-0.163574,0.0219727,0.0259399,-0.0137329,0.0320435,0.0341797
167,3,0.0189209,0.0210571,0.0686646,0.0372314,0.0253296,0.0128174,0.0308228,0.0250244,0.010376,0.000915527,-0.00915527,0.0195312,0.0213623
167,4,0.0234985,0.00610352,-0.0216675,0.038147,0.0274658,0.236816,0.0332642,-0.692139,0.0302124,0.0338745,-0.00701904,0.0149536,0.0112915
168,0,0.0332642,0.0238037,0.0183105,0.0308228,0.0247192,1.38123,0.0164795,0.159302,0.0158691,0.0115967,-0.027771,0.0109863,0.0213623
168,1,0.0234985,0.00396729,0.0408936,0.0308228,0.0302124,1.53992,0.0195312,0.240479,0.00793457,0.0274658,-0.0152588,-0.00427246,0.0265503
168,2,0.0268555,0.00549316,0.0390625,0.0280762,0.0192261,1.74927,0.0247192,-0.200195,0.0241089,0.017395,-0.0231934,0.0204468,0.0253296
168,3,0.0299072,0.0183105,0.0332642,0.00152588,0.0387573,0.654907,0.0384521,-0.385132,0.0558472,0.0143433,-0.0170898,0.0491333,0.015564
168,4,0.0152588,0.0296021,0.0201416,0.0344849,0.020752,-1.01135,0.0311279,-0.313721,0.0115967,0.0222778,-0.0140381,0.0308228,0.015564
169,0,0.020752,0.00854492,0.0231934,0.0308228,0.104065,0.0689697,0.0250244,-0.0900269,0.015564,0.00579834,-0.00823975,0.0491333,0.0158691
169,1,-0.000305176,-0.0256348,0.0195312,0.0198364,0.0320435,0.473938,0.0244141,-0.41687,0.0201416,0.0332642,-0.0128174,0.0283813,0.0167847
169,2,0.0146484,0.0332642,0.0228882,0.0305176,0.071106,1.65649,0.0262451,-0.441284,0.00732422,0.0177002,-0.012207,0.0210571,0.0369263
169,3,0.0149536,0.0332642,0,0.0408936,0.0332642,0.601196,0.0308228,-0.622864,-0.0137329,0.0195312,-0.0131226,0.0183105,0.0180054
169,4,-0.00671387,-0.0146484,0.015564,-0.000610352,0.0811768,1.50269,0.0231934,-0.715332,0.0198364,0.0210571,-0.0106812,0.0338745,0.0350952
170,0,0.0146484,0.0161743,0.0299072,0.0244141,0.0299072,1.47217,0.0210571,-0.617981,0.0222778,0.0314331,-0.0115967,0.0231934,0.0460815
170,1,-0.00854492,0.0231934,0.0112915,0.0613403,0.0112915,0.813599,0.0378418,-0.37323,0.0112915,0.0183105,-0.010376,0.0186157,0.0186157
170,2,0.0540161,0.0177002,0.0152588,0.0656128,0.0234985,1.47339,0.0390625,-0.227966,0.00488281,0.00549316,-0.0296021,0.0299072,0.0109863
170,3,0.0238037,0.0299072,0.0250244,0.0375366,0.0360107,1.50726,0.0296021,-0.638428,-0.00701904,0.000610352,-0.0143433,0.0323486,0.0198364
170,4,0.0183105,-0.0146484,0.0363159,0.0375366,0.062561,2.12982,0.0198364,-0.0131226,-0.0088501,0.0143433,-0.0296021,0.027771,0.0247192
171,0,0.0149536,0.0195312,0.00762939,0.0149536,0.027771,1.92719,0.0204468,0.267639,0.0204468,0.03479,-0.0250244,0.012207,0.0271606
171,1,0.0540161,0.0170898,0.00854492,-0.0152588,0.0384521,1.64032,0.0253296,0.083313,-0.00427246,0.0115967,-0.0512695,0.0186157,0.012207
171,2,0.017395,0.0112915,-0.0140381,0.0341797,0.0473022,1.75812,0.0268555,0.162048,0.0601196,0.0216675,-0.00579834,0.0088501,0.00946045
171,3,-0.0418091,0.0140381,0.0231934,0.0457764,0.0244141,1.63361,0.0436401,0.30365,0.0201416,0.0186157,-0.0274658,0.0271606,0.0143433
171,4,0.0524902,0.00457764,0.00610352,0.0228882,0.0320435,1.2796,0.0256348,0.430298,0.0192261,0.0177002,-0.0247192,0.0189209,0.0262451
172,0,0.0387573,0.0146484,0.0140381,0.0366211,0.0241089,0.205994,0.0302124,0.111694,0.0106812,0.0192261,-0.0494385,0.0177002,0.0112915
172,1,-0.00152588,-0.00457764,0.0198364,-0.0326538,0.0183105,-0.745544,-0.0268555,0.613403,0.0128174,-0.038147,-0.0427246,0.0183105,-0.0234985
172,2,0.022583,0.0222778,0.00152588,0.0338745,0.0158691,-0.816345,0.0192261,0.562439,0.0222778,0.0198364,-0.0109863,0.0259399,0.0186157
172,3,0.0198364,0.0323486,0.017395,0.0289917,0.0338745,-1.62262,0.0393677,0.516663,-0.0195312,0.0140381,-0.0134277,-0.0186157,0.0222778
172,4,0.0088501,0.0158691,0.0134277,0.10376,0.0253296,-1.8045,0.0952148,0.265808,0.020752,0.0585938,-0.0213623,0.022583,0.015564
173,0,0.0177002,0.0137329,0.0140381,0.0268555,0.0161743,-1.73828,0.0366211,0.218811,0.0134277,0.0128174,-0.00976562,0.015564,0.0189209
173,1,0.00976562,0.00793457,0.0735474,0.0311279,0.032959,-1.43158,0.0286865,0.100708,0.0601196,0.0259399,-0.0213623,0.0192261,0.015564
173,2,0.0137329,0.017395,0.0354004,0.0112915,0.0360107,-1.36505,0.0341797,-0.153198,0.0134277,-0.0128174,-0.0106812,0.0131226,0.0387573
173,3,0.0262451,0.0134277,0.0161743,0.03479,0.0326538,-1.21155,0.0326538,0.291748,0.0149536,-0.000915527,-0.0195312,0.0152588,0.0140381
173,4,0.0259399,0.0299072,0.0186157,0.0213623,0.0180054,-0.91156,0.0186157,0.390625,0.0177002,-0.0140381,-0.0195312,0.00762939,0.0817871
174,0,0.0204468,0.0180054,-0.027771,0.0238037,0.0274658,-0.932617,0.0302124,0.563965,-0.0292969,-0.0131226,-0.00946045,0.0579834,0.0305176
174,1,0.0149536,0.0326538,0.0128174,0.0164795,0.0299072,-0.774841,0.0280762,0.296631,0.00488281,-0.000610352,-0.0320435,0.00610352,0.0137329
174,2,0.0125122,0.0204468,0.0134277,0.0244141,0.0210571,-0.829163,0.0265503,0.924072,0.0131226,0.0109863,-0.00244141,-0.0683594,0.0299072
174,3,0.0192261,0.0119019,0.0152588,0.043335,0.0216675,-0.734863,0.0283813,0.981445,0.017395,-0.0012207,-0.0274658,-0.0393677,0.0222778
174,4,0.00549316,0.00366211,0.0213623,0.0366211,0.0320435,-0.797424,0.0436401,0.829468,0.0180054,-0.00640869,-0.00305176,-0.0170898,0.0140381
175,0,0.022583,0.0161743,-0.0140381,0.03479,0.0183105,-0.96405,0.0357056,1.48956,0.0286865,0.00518799,-0.0109863,0.00915527,0.000610352
175,1,0.0546265,0.0274658,0.00549316,-0.0201416,0.0256348,-0.932922,0.0454712,1.23047,0.0131226,-0.0112915,-0.0198364,0.0439453,0.010376
175,2,0.0238037,-0.0247192,0.0100708,0.0204468,0.0619507,-0.782166,0.0350952,1.1673,0.0140381,-0.00335693,-0.010376,0.0891113,0.00976562
175,3,-0.0253296,0.0256348,0.0219727,0.0177002,0.027771,-0.81665,0.0897217,1.05164,0.0213623,-0.0643921,-0.00305176,0.00640869,0.0274658
175,4,0.0183105,0.0653076,0.00183105,0.0265503,0.00976562,-0.578308,0.0259399,1.59332,0.0134277,0.000610352,-0.0268555,-0.0170898,-0.00427246
176,0,0.0149536,0.0289917,0.0268555,0.032959,0.0268555,-0.346375,0.0186157,1.63971,0.03479,-0.00793457,-0.0210571,-0.0167847,0.0228882
