Devices
1000
,,Myon - Voltage,,,,,,,,,,,,,
Frame,Sub Frame,GC-M,TA,SOL,VM,VL,RF,BF,ST,GLUT-M,Gracilis,EO,GC-L,Semimembranosus
,,V,V,V,V,V,V,V,V,V,V,V,V,V
1,0,-0.0125122,0.0192261,0.0430298,-0.0238037,0.0274658,0.0314331,0.0369263,-0.00823975,0.0204468,0.0866699,-0.0234985,0.0308228,0.0857544
1,1,0.012207,0.0241089,0.0204468,0.0234985,0.0204468,0.0366211,0.0479126,0.0268555,0.0177002,0.0427246,-0.0109863,0.0518799,-0.0222778
1,2,0.0109863,0.0119019,0.0387573,0.0158691,0.0393677,0.0228882,0.0280762,0.0326538,0.00854492,0.0582886,-0.0119019,0.0369263,0.0137329
1,3,0.00732422,0.0256348,0.0308228,0.027771,0.0366211,0.0244141,-0.0314331,0.0012207,0.015564,0.00793457,0.000610352,0.0335693,0.010376
1,4,-0.0149536,0.0427246,0.0189209,0.0152588,0.0680542,0.0402832,0.012207,-0.0305176,0.0320435,0.0527954,-0.0222778,0.0430298,0.0302124
2,0,-0.0146484,0.0140381,0.0387573,0.0250244,0.0299072,-0.0192261,0.0152588,0.0305176,0.00762939,0.0665283,-0.0134277,0.06073,0.0253296
2,1,-0.00274658,0.0216675,0.0109863,0.0177002,0.0296021,0.0268555,0.0280762,0.0341797,0.0222778,0.017395,-0.0259399,0.0463867,0.0357056
2,2,-0.00366211,0.0164795,0.0411987,-0.00335693,0.0210571,0.0320435,0.032959,0.0289917,0.00732422,0.0494385,-0.00640869,0.0460815,0.00366211
2,3,0.00457764,0.017395,-0.0189209,0.0109863,0.0274658,-0.0125122,0.0350952,0.0210571,-0.00549316,0.0473022,-0.0292969,0.0808716,0.0244141
2,4,0.0161743,0.0198364,0.0192261,0.0271606,0.0213623,0.0314331,0.0375366,0.0332642,0.0180054,0.0454712,-0.0479126,0.0302124,0.0268555
3,0,0.0296021,0.0204468,0.0411987,0.0234985,0.0259399,0.0341797,0.039978,0.032959,0.0192261,0.0439453,-0.0161743,0.0289917,0.017395
3,1,0.0366211,-0.0283813,0.0375366,0.0314331,0.0723267,0.00732422,0.0305176,0.022583,0.0357056,0.0384521,-0.0170898,0.055542,0.0137329
3,2,0.0540161,0.0299072,0.0216675,0.0280762,0.00762939,0.0326538,0.0518799,0.0115967,0.0286865,0.0216675,0.00396729,0.0408936,0.0491333
3,3,0.027771,0.0137329,-0.0119019,0.0405884,0.0341797,0.0265503,0.0372314,0.0210571,0.0299072,0.0259399,-0.0238037,0.0244141,0.0262451
3,4,-0.00244141,0.0131226,-0.00305176,0.0274658,0.027771,-0.000915527,0.0369263,0.0311279,0.0863647,0.0265503,-0.0167847,0.0302124,0.017395
4,0,-0.00183105,0.0186157,0.0146484,0.0357056,0.0463867,0.0405884,0.0320435,0.0231934,0.0241089,-0.00213623,-0.0161743,0.00457764,0.0363159
4,1,-0.0588989,0.0128174,0.00671387,0.0167847,0.0167847,0.0338745,0.017395,0.0341797,0.0241089,0.0201416,-0.03479,-0.0167847,0.0369263
4,2,0.0317383,0.0299072,0.00457764,0.0405884,0.0384521,0.0341797,0.0418091,0.0250244,0.0360107,0.0115967,-0.0219727,0.000305176,0.0143433
4,3,0.00701904,0.020752,0.00610352,0.0256348,0.0250244,0.0326538,0.0390625,0.0256348,0.0378418,0.00793457,-0.0161743,0.0134277,0.00427246
4,4,0.0244141,0.00549316,0.0143433,0.0387573,0.0741577,0.0241089,0.0250244,0.0448608,0.0286865,0.00915527,-0.0564575,-0.010376,0.0170898
5,0,0.0241089,0.000915527,0.0210571,-0.0238037,0.0241089,0.0204468,0,0.0241089,0.0137329,0.0262451,-0.0143433,0.0204468,0.0204468
5,1,-0.00335693,-0.00183105,0.0283813,0.0213623,0.0326538,0.0314331,0.0317383,0.0119019,0.020752,-0.00488281,-0.0195312,0.0296021,0.0161743
5,2,-0.0183105,0.0140381,0.0512695,0.045166,0.0543213,0.0152588,0.0457764,0.0115967,0.017395,-0.0143433,-0.0222778,0.0253296,0.0378418
5,3,-0.0314331,0.0268555,0.0311279,0.0350952,0.0219727,0.00671387,0.0244141,0.0415039,0.0317383,-0.00366211,-0.0234985,0.0109863,0.0323486
5,4,0.000610352,0.0201416,0.0216675,0.0326538,0.0387573,0.0192261,0.0485229,0.0323486,0.0259399,-0.0299072,-0.0177002,0.0167847,-0.0506592
6,0,0.0369263,0.0280762,0.0262451,0.0268555,0.0363159,0.0164795,0.0189209,0.0436401,-0.00152588,0.000610352,-0.012207,-0.00427246,0.0195312
6,1,0.0357056,0.0238037,0.0183105,0.0268555,0.0344849,0.0158691,0.0430298,0.0357056,0.0344849,-0.0106812,-0.0238037,-0.0244141,0.0198364
6,2,0.0592041,0.0152588,0.0219727,0.043335,0.0219727,0.0302124,0.0408936,0.0317383,0.0140381,-0.0613403,-0.0149536,0.0183105,0.0228882
6,3,0.101624,0.0192261,0.0241089,0.0335693,0.0323486,-0.0411987,0.0265503,0.0341797,-0.0250244,-0.00915527,-0.0198364,0.00732422,0.0149536
6,4,0.0601196,0.020752,0.0231934,0.0311279,0.0323486,0.0216675,0.0283813,0.0186157,0.0204468,-0.00335693,-0.0213623,0.012207,0.0250244
7,0,0.0222778,0.0515747,0.0326538,0.0405884,0.0500488,0.0234985,0.0491333,-0.0183105,0.0198364,-0.00579834,-0.0234985,-0.00793457,0.0149536
7,1,-0.0411987,0.0149536,0.0256348,0.0387573,0.0152588,0.0112915,0.0350952,0.0283813,0.0152588,-0.00640869,-0.0192261,0.0131226,0.0164795
7,2,-0.0231934,0.0253296,0.00244141,0.0296021,0.0216675,0.0317383,0.0308228,0.085144,0.0167847,-0.00396729,-0.00152588,0.0137329,0.0271606
7,3,-0.0698853,0.0106812,0.0271606,0.0323486,0.0231934,0.0250244,0.0234985,0.0418091,0.017395,0.00946045,-0.0140381,-0.00335693,0.0305176
7,4,-0.0964355,0.00152588,0.0241089,0.0375366,0.0875854,0.0634766,0.0299072,-0.0344849,0.0439453,-0.0125122,-0.0189209,-0.0158691,0.0256348
8,0,-0.0793457,0.0119019,0.0274658,0.0283813,0.0427246,0.0344849,0.0234985,0.0125122,0.0515747,0.00701904,-0.0170898,0.0149536,0.0271606
8,1,-0.0430298,0.0244141,0.0335693,0.0219727,0.0125122,0.0308228,-0.00610352,0.0320435,0.0262451,0.022583,-0.0262451,-0.0396729,-0.0259399
8,2,0.0100708,0.0247192,0.0418091,0.0195312,0.0317383,0.0424194,0.0320435,0.022583,0.0549316,0.0149536,-0.0119019,-0.100098,-0.0210571
8,3,0.0485229,-0.0152588,0.00823975,0.0289917,0.022583,0.0387573,0.0274658,0.0448608,0.0305176,0.00152588,-0.0247192,0.0195312,0.0167847
8,4,0.038147,0.0283813,0.00488281,-0.00488281,0.0296021,0.0247192,0.0268555,0.0341797,0.0302124,0.0241089,-0.0213623,0.0466919,0.0213623
9,0,0.0778198,0.0189209,-0.00671387,0.0363159,0.065918,0.0222778,0.0402832,0.00579834,0.03479,0.012207,-0.0204468,0.0521851,0.0128174
9,1,0.0250244,0.0106812,0.000915527,0.0445557,0.0274658,0.0238037,0.0323486,0.0320435,0.0305176,-0.03479,-0.0299072,0.0317383,0.0158691
9,2,0.0646973,0.0109863,0.0158691,0.022583,0.0283813,0.0231934,0.0186157,0.0357056,0.0512695,0.0170898,-0.0268555,0.0228882,0.0341797
9,3,0.10498,0.0152588,0.0726318,0.0384521,0.0177002,-0.0204468,0.0387573,0.0131226,0.0274658,0.00640869,-0.0152588,0.00427246,0.0100708
9,4,0.124512,0.0128174,0.020752,0.015564,0.0183105,-0.0314331,0.0314331,0.0311279,0.0231934,0.00274658,-0.00549316,0.0289917,0.0158691
10,0,0.0656128,0.00762939,0.0231934,0.0213623,0.0299072,0.0286865,0.0314331,0.022583,0.0427246,-0.00396729,-0.0186157,0.0299072,0.0234985
10,1,0.022583,0.0415039,0.0253296,0.0332642,0.0222778,0.0396729,0.0411987,0.0286865,0.0283813,0.0286865,-0.0222778,0.00518799,0.020752
10,2,0.0344849,0.00427246,0.0112915,0.0192261,0.022583,0.022583,0.0350952,0.0231934,0.0424194,0.0131226,-0.0247192,0.0268555,0.0180054
10,3,0.0323486,0.0216675,0.022583,0.0463867,0.0204468,0.0357056,0.0231934,0.0311279,0.0323486,-0.0396729,-0.0222778,0.0402832,0.0109863
10,4,0.0283813,0.0234985,0.0317383,0.0338745,-0.0143433,0.0259399,0.0302124,0.020752,0.0180054,0.0314331,-0.00274658,0.0210571,0.015564
11,0,0.0280762,0.0582886,0.027771,0.0384521,0.0698853,0.0369263,0.0244141,0.0872803,0.0244141,0.0396729,-0.0152588,0.0411987,0.0210571
11,1,0.0314331,0.0012207,0.0204468,0.0305176,0.0265503,0.0256348,0.0222778,0.0341797,0.0143433,0.0238037,-0.020752,0.0421143,0.0125122
11,2,0.0460815,0.0134277,0.0149536,0.0244141,0.00549316,0.0296021,0.0189209,0.0457764,0.0308228,0.0286865,-0.015564,0.0341797,0.0195312
11,3,0.0219727,0.00244141,0.0244141,0.0088501,0.0180054,0.0341797,0.0323486,0.0216675,0.0311279,0.0531006,-0.0012207,-0.0268555,0.0216675
11,4,0.0332642,-0.00366211,0.0149536,0.0112915,0.022583,0.0302124,0.0241089,0.0363159,0.0631714,0.0341797,-0.0158691,-0.0109863,0.0201416
12,0,-0.0134277,0.0131226,0.0128174,0.0198364,0.0170898,0.0292969,0.022583,-0.0140381,0.039978,0.0262451,0.015564,-0.0891113,0.0186157
12,1,-0.00152588,0.010376,0.0115967,0.0149536,0.0271606,0.0344849,0.0341797,0.032959,0.0109863,0.0280762,-0.0137329,-0.134888,0.00701904
12,2,-0.0131226,0.00579834,0.00640869,0.0271606,0.0262451,0.0106812,0.0286865,0.0311279,0.0454712,0.0375366,-0.0125122,-0.0726318,0.062561
12,3,-0.022583,0.0140381,-0.00579834,0.0265503,0.0262451,0.0674438,0.0250244,0.0524902,0.020752,0.0375366,-0.020752,-0.111694,0.00610352
12,4,0.0088501,0.0088501,0.0274658,0.0146484,0.0115967,0.0265503,0.0289917,0.0466919,0.0296021,0.0506592,-0.0216675,-0.260315,0.0250244
13,0,0.0344849,0.0161743,-0.00183105,0.0698853,0.0219727,0.0323486,-0.010376,0.0463867,0.0390625,0.0415039,-0.0259399,-0.288086,0.0125122
13,1,0.0299072,-0.000610352,0.0180054,0.0213623,0.0296021,0.0195312,0.017395,-0.0106812,0.0231934,0.0244141,-0.0750732,-0.0274658,0.0170898
13,2,0.0689697,0.00457764,0.0189209,0.0189209,0.0244141,0.0238037,0.0296021,0.0378418,0.0350952,0.0558472,-0.0253296,-0.408325,0.012207
13,3,0.0445557,-0.0164795,0.022583,0.0088501,0.0146484,0.0473022,0.0228882,0.0820923,0.0320435,0.0363159,-0.0250244,0.203247,0.00915527
13,4,0.017395,0.0158691,0.0213623,0.0134277,0.00183105,-0.0384521,0.0366211,0.0161743,0.027771,0.0366211,-0.0100708,0.253601,0.0296021
14,0,0.0344849,0.0088501,0.00640869,0.0189209,0.012207,0.0488281,0.0302124,0.0344849,0.00152588,0.0131226,-0.0338745,0.186768,0.0210571
14,1,0.0256348,0.0241089,-0.00518799,0.0128174,0.0299072,-0.0421143,0.0195312,0.0320435,-0.00335693,0.0289917,-0.0265503,-0.120239,0.0195312
14,2,-0.000915527,0.00488281,0.108032,0.0189209,0.0170898,0.0558472,0.0222778,0.0344849,0.0790405,0.0247192,-0.027771,-1.26038,0.00244141
14,3,-0.00701904,0.027771,0.0683594,0.00946045,-0.0183105,0.022583,0.0292969,-0.0332642,0.0372314,0.0283813,-0.0326538,-0.111694,0.00274658
14,4,-0.0234985,0.022583,0.0341797,0.00396729,0.0292969,0.0204468,0.0250244,0.0244141,0.03479,0.0119019,-0.0262451,0.292969,0.0149536
15,0,-0.0186157,-0.0253296,0.0137329,0.00701904,0.020752,0.0213623,0.0317383,0.0112915,0.03479,0.0341797,-0.0253296,-1.04462,0.0128174
15,1,-0.00274658,0.0234985,-0.0262451,0.00793457,0.0250244,0.0158691,0.0418091,0.0314331,0.0323486,0.0198364,-0.0360107,0.149231,0.00946045
15,2,0.0582886,0.012207,-0.0335693,0.0317383,0.0192261,0.0283813,0.03479,0.0231934,0.0198364,0.0231934,-0.0405884,-0.219116,0.0183105
15,3,0.0296021,0.0198364,-0.0115967,-0.020752,0.0228882,0.00549316,0.0265503,0.03479,0.0354004,0.0323486,-0.0247192,-0.0234985,0.00549316
15,4,-0.0125122,0.0204468,0.00549316,0.0115967,0.0152588,0.012207,0.0296021,0.0280762,0.0320435,0.0250244,-0.0177002,0.391235,-0.00183105
16,0,0.0360107,-0.017395,-0.0317383,0.00762939,0.0140381,0.0341797,0.0311279,0.0726318,0.0558472,0.0344849,-0.043335,-0.26123,0.0149536
16,1,-0.010376,0.0216675,0.0131226,-0.0292969,0.0311279,0.0143433,0.0592041,-0.00518799,0.0320435,0.0616455,-0.0216675,0.0567627,0.0192261
16,2,0.0363159,-0.0323486,0.0192261,0.0292969,0.0234985,0.0323486,0.0247192,0.0198364,0.0366211,0.0341797,-0.0311279,-0.299988,0.0250244
16,3,0.0268555,0.0247192,0.0088501,0.00946045,0.0247192,0.0125122,0.0256348,0.0393677,0.0259399,0.0311279,-0.03479,0.234985,0.00946045
16,4,0.027771,0.0289917,0.00610352,0.0158691,0.0320435,0.0286865,0.015564,0.0164795,0.0201416,0.0292969,-0.0289917,-0.360718,0.00701904
17,0,0.0585938,-0.00244141,0.00701904,-0.0497437,0.0140381,0.00427246,0.0622559,0.0405884,0.0305176,0.0289917,-0.00915527,-0.227051,-0.0128174
17,1,0.0128174,0.0201416,0.00793457,0.0106812,0.0198364,0.00854492,0.0909424,0.0363159,0.0280762,-0.00274658,-0.0454712,0.285034,0.0137329
17,2,0.0299072,0.0241089,0.00946045,0.00732422,0.0262451,0.0177002,0.0198364,-0.0012207,0.0375366,0.0378418,-0.0665283,0.180359,0.0189209
17,3,0.0265503,0.0183105,0.0189209,-0.00213623,0.00762939,-0.0106812,0.0253296,0.0314331,0.0991821,0.0302124,-0.0360107,0.625,-0.010376
17,4,0.0238037,-0.00213623,0.0189209,0.0119019,0.0292969,0.0317383,0.0244141,0.0482178,0.0460815,0.0375366,-0.0244141,0.475464,0.0183105
18,0,-0.00427246,0.0265503,0.0289917,-0.00366211,0.022583,0.00762939,0.0283813,0.0231934,0.0262451,0.0289917,-0.0189209,0.661621,0.0222778
18,1,0.0250244,0.0177002,0.00213623,-0.00305176,0.015564,0.012207,0.0317383,0.0366211,0.0720215,0.0234985,-0.0344849,0.452271,0.0189209
18,2,0.017395,0.0204468,0.0274658,-0.000915527,0.012207,0.0128174,0.0305176,0.0183105,0.0320435,0.020752,-0.0335693,0.251465,0.027771
18,3,0.0405884,0.0320435,0.0311279,0.00518799,0.0088501,0.0222778,0.0238037,0.0134277,0.0357056,0.0134277,-0.0241089,0.296631,0.0167847
18,4,0.0238037,0.0250244,0.0259399,0.0177002,0.00183105,0.00823975,0.0378418,0.0231934,0.0283813,0.0271606,0.000915527,0.400085,0.0204468
19,0,-0.0115967,0.0219727,0.0314331,0.0134277,0.0143433,-0.00946045,0.0238037,0.0177002,0.0195312,-0.00335693,-0.0296021,0.458374,0.0143433
19,1,-0.0265503,-0.0088501,0.0262451,0.00793457,-0.0418091,0.00946045,0.022583,-0.0222778,0.0360107,0.0238037,-0.0421143,0.194397,0.0125122
19,2,-0.0299072,0.017395,0.0427246,0.0128174,0.0183105,0.00610352,0.0268555,0.0344849,0.0180054,0.017395,-0.0338745,-0.342712,0.0106812
19,3,0.0210571,0.0201416,0.0326538,-0.0375366,0.0100708,0.0280762,-0.0384521,0.0219727,0.0332642,-0.00488281,-0.0286865,0.220947,0.0332642
19,4,-0.000305176,0.00457764,0.020752,-0.0131226,0.0286865,0.00946045,0.0210571,0.0283813,0.0228882,0.0247192,-0.0354004,-0.098877,0.0119019
20,0,-0.0186157,0.0222778,0.0170898,0.0335693,0.00946045,0.0167847,0.0280762,0.0204468,0.0271606,0.0259399,-0.0289917,0.30426,0.0149536
20,1,-0.000305176,0.0268555,0.0204468,0.0164795,0.032959,0.0299072,0.0204468,0.0350952,0.020752,0.0308228,-0.0271606,-0.229797,0.0283813
20,2,0.00427246,0.0222778,0.0259399,0.00976562,0.0109863,0.0183105,0.0296021,0.0231934,0.0323486,0.0140381,-0.0384521,0.133667,0.0396729
20,3,-0.0421143,-0.0106812,0.0421143,0.0125122,0.0213623,0.0125122,0.0228882,0.0100708,0.0152588,0.0265503,-0.0335693,-0.0341797,0.0210571
20,4,-0.0500488,0.0106812,0,0.0195312,0.0292969,0.0683594,0.00854492,0.017395,0.0238037,0.0289917,-0.0219727,0.206604,0.0109863
21,0,-0.0326538,-0.0442505,0.0390625,0.000610352,0.0579834,0.0167847,0.0231934,0.0299072,0.00610352,0.0314331,-0.0262451,0.224609,0.0143433
21,1,0.00213623,0.0268555,0.0289917,0.0128174,0.00976562,0.00518799,0.0201416,0.0360107,0.0231934,0.0247192,-0.0259399,0.178528,0.0210571
21,2,0.00335693,0.0369263,0.000610352,-0.00671387,0.0161743,0.0115967,0.0256348,0.0231934,0.0131226,0.085144,-0.0360107,0.333557,-0.0143433
21,3,0.0491333,0.0604248,0.0131226,0.00549316,-0.00671387,0.0131226,0.0189209,0.0457764,0.0125122,0.0323486,-0.0338745,0.426331,0.015564
21,4,0.0537109,0.0241089,0.00457764,0.0012207,0.0274658,0.022583,0.0262451,0.0430298,0.0161743,0.0274658,-0.0369263,0.38147,0.0286865
22,0,0.0994873,0.0424194,-0.000915527,-0.0283813,0.012207,0.00396729,0.045166,0.0244141,0.010376,0.0180054,-0.0421143,0.39093,-0.0274658
22,1,0.0430298,0.0576782,-0.0134277,0.00549316,0.0149536,0,0.0204468,0.0253296,0.0250244,0.0152588,-0.0271606,0.396423,0.017395
22,2,0.0372314,0.0335693,0.00488281,-0.000610352,0.0100708,0.00976562,0.0137329,0.0134277,0.0561523,0.0378418,-0.0375366,0.405579,0.0213623
22,3,0.0476074,0.078125,0.000915527,-0.0177002,0.0445557,0.0271606,0.0213623,0.0170898,0.00427246,0.043335,-0.0256348,0.372009,0.0125122
22,4,0.0448608,0.0488281,0.00823975,0.00610352,0.0143433,0.00854492,0.0170898,0.0143433,-0.00915527,0.0302124,-0.0332642,0.361023,0.0158691
23,0,-0.00488281,0.0186157,0.00671387,-0.0219727,0.0308228,0.00671387,0.0216675,0.0216675,0.0088501,0.0265503,-0.0369263,0.343933,0.0311279
23,1,0.0500488,0.0308228,0.0183105,0.00610352,0.00549316,0.000915527,0.027771,0.0180054,0.015564,0.0128174,-0.0360107,0.346985,0.0274658
23,2,0.0500488,0.0378418,0.00396729,0.00549316,0.00915527,0.015564,0.0170898,0.0143433,0.00549316,0.0234985,-0.0701904,0.345459,0.0268555
23,3,0.0531006,0.0320435,0.039978,0.00976562,0.0158691,0.0653076,0.0131226,0.0112915,0.0790405,0.0259399,-0.0363159,0.297852,0.0143433
23,4,0.0283813,0.0222778,0.0344849,0.0115967,0.0143433,0.0216675,0.0247192,0.0180054,0.00915527,0.057373,-0.0259399,0.322876,0.0292969
24,0,0.0466919,0.0216675,0.0109863,-0.0296021,0.0241089,0.00183105,0.0088501,0.00457764,-0.00152588,0.0247192,-0.0265503,0.327148,0.0222778
24,1,0.0262451,0.0234985,0.00549316,0.0231934,0.0152588,0.0216675,0.0692749,0.03479,0.0265503,-0.0308228,-0.0189209,0.310364,0.0274658
24,2,0.0512695,0.0296021,0.0234985,0.0366211,0.0180054,0.0119019,-0.0311279,0.0469971,0.0189209,0.039978,-0.0286865,0.300903,0.0457764
24,3,0.0408936,0.0238037,-0.0439453,0.00823975,0.00671387,0.0500488,0.0152588,0.0201416,0.0271606,0.0265503,-0.0311279,-0.299683,0.0265503
24,4,0.0411987,-0.0180054,0.0231934,0.017395,0.0112915,0.0125122,0.0164795,0.022583,0.0369263,0.0274658,-0.0289917,-0.125732,0.0186157
25,0,0.039978,0.017395,0.0286865,0.0219727,0.00854492,0.0338745,0.0259399,0.00305176,-0.03479,0.0424194,-0.0335693,-0.395813,0.0286865
25,1,0.0619507,0.00335693,0.0314331,0.0143433,0.00213623,0.0247192,0.00305176,0.0109863,0.00396729,0.0378418,-0.0271606,-0.0994873,0.0354004
25,2,0.0561523,0.0274658,0.0491333,0.00946045,0.00213623,-0.0436401,0.0244141,0.0152588,0.0405884,0.0411987,-0.0308228,0.152283,0.0112915
25,3,0.00823975,0.043335,0.0192261,0.010376,0.0125122,0.0161743,0.0231934,0.00549316,0.0183105,0.0390625,-0.03479,0.133972,0.0604248
25,4,-0.0741577,0.0170898,0.027771,0.0512695,0.0125122,0.015564,0.0210571,0,-0.00152588,0.0326538,-0.0314331,0.128784,0.0259399
26,0,-0.0411987,0.0115967,0.0283813,0.0140381,-0.0311279,0.0195312,0.020752,0.0613403,0.0280762,0.027771,-0.0411987,0.10376,0.0302124
26,1,-0.027771,0.0357056,0.0369263,0.0222778,0.010376,0.0152588,0.00762939,0.00671387,0.0167847,0.00152588,-0.0344849,0.0823975,0.00854492
26,2,-0.000915527,0.0402832,0.0274658,0.0134277,0.0137329,0.00732422,0.00854492,0.0115967,0.0213623,0.0366211,-0.0323486,0.105286,0.0308228
26,3,0.0262451,0.0482178,0.0195312,0.00823975,0.0210571,0.00762939,0.0247192,0.010376,0.0393677,0.0292969,-0.0280762,0.0952148,0.0125122
26,4,0.03479,0.0463867,0.0439453,0.0183105,0.0274658,-0.00244141,0.0134277,0.00274658,0.0177002,0.0164795,-0.0375366,0.0741577,0.0198364
27,0,0.0845337,0.0405884,0.0509644,0.032959,0.00976562,0.020752,0.00518799,0.00854492,0.0186157,-0.027771,0.00183105,0.0430298,0.0268555
27,1,0.0393677,0.0256348,0.0292969,0.0314331,0.0186157,0.00610352,0.00915527,0.0195312,0.0265503,-0.0317383,-0.0357056,0.0204468,0.0213623
27,2,0.0515747,0.0326538,0.0436401,0.0256348,0.0201416,0.00427246,0.0112915,0.00610352,0.0152588,0.0106812,-0.0430298,0.0143433,0.072937
27,3,0.0393677,0.0393677,0.010376,0.0592041,0.017395,0.0195312,0.020752,0.0396729,0.0192261,0.0109863,-0.0265503,0.0262451,0.038147
27,4,0.0402832,0.0195312,-0.0299072,0.0201416,0.0112915,0.020752,0.0177002,0.0424194,0.0299072,0.0350952,-0.0418091,0.0106812,0.0128174
28,0,0.0473022,0.039978,0.00976562,0.0143433,0.0112915,0.0228882,0.0177002,0.0140381,0.0201416,0.0231934,-0.0302124,-0.00427246,0.00701904
28,1,0.015564,0.0317383,-0.00305176,0.085144,0.0134277,-0.00213623,0.0134277,0.0143433,0.0177002,0.022583,-0.045166,0.010376,0.0396729
28,2,0.0134277,0.0247192,-0.0189209,0.0292969,0.00854492,0.0140381,0.00946045,0.010376,0.0213623,-0.00915527,-0.0305176,-0.00915527,0.0247192
28,3,0.0442505,0.0143433,0.0271606,0.0250244,0.00457764,0.0137329,0.0228882,0.0241089,0.0088501,0.0192261,-0.0323486,-0.0100708,0.0250244
28,4,0.0354004,0.0335693,0.0326538,0.0112915,0.0238037,0.00335693,-0.00488281,0.0140381,0.00976562,0.0314331,-0.0311279,-0.0701904,0.0424194
29,0,0.0314331,0.0259399,0.0143433,0.0204468,-0.0390625,0.0363159,0.0201416,0.0204468,0.0216675,0.022583,-0.00183105,-0.0357056,0.0357056
29,1,0.0430298,0.0280762,0.0280762,0.012207,0.0137329,0.0161743,0.0167847,0.0128174,0.0106812,0.0262451,-0.022583,0.065918,0.0427246
29,2,0.0265503,0.0292969,0.0192261,0.0668335,0.00579834,0.0100708,-0.00427246,-0.00183105,0.0268555,0.0256348,-0.0170898,-0.00854492,0.0708008
29,3,0.0302124,0.0393677,0.0180054,0.0253296,0.0198364,0.0192261,0.0128174,0.0109863,0.0231934,0.0180054,-0.0396729,-0.000610352,0.0332642
29,4,0.0466919,0.0274658,0.0674438,-0.00305176,0.0201416,0.0164795,0.00915527,0.0198364,0.0152588,0.0149536,-0.0289917,-0.00396729,0.039978
30,0,0.0344849,0.0219727,0.0317383,0.0338745,0.0115967,-0.00518799,0.0247192,0.012207,0.039978,0.022583,-0.0320435,-0.00213623,0.0268555
30,1,0.0317383,0.0296021,0.0326538,0.027771,0.0396729,0.0106812,0.0186157,0.00915527,0.0283813,0.0305176,-0.0683594,-0.0521851,0.0292969
30,2,0.0509644,0.0372314,-0.0210571,0.0369263,0.0152588,0.0875854,0.0158691,0.0161743,-0.0320435,0.0354004,-0.0430298,-0.0228882,0.0283813
30,3,0.0372314,0.00976562,0.0180054,0.0186157,0.0302124,-0.00915527,0.0234985,0.0588989,0.0167847,0.0180054,-0.0643921,-0.0524902,0.0265503
30,4,0.0592041,-0.00305176,0.03479,0.0286865,0.0415039,0.0180054,0.0131226,0.0234985,0.0195312,0.00976562,-0.0390625,-0.00305176,0.0341797
31,0,0.06073,0.0265503,0.0247192,0.0305176,0.0119019,0.0219727,0.0259399,0.0234985,0.0183105,0.00274658,-0.00335693,-0.0570679,0.00823975
31,1,0.0219727,0.00427246,0.0439453,0.038147,0.015564,0.0177002,0.00549316,0.0134277,0.0192261,0.0216675,-0.0238037,-0.0628662,0.032959
31,2,0.0314331,0.0250244,0.0506592,0.0164795,0.0146484,0.00793457,0.0332642,0.00366211,0.0170898,0.0592041,-0.0253296,-0.0213623,0.0274658
31,3,0.0259399,0.0201416,0.06073,0.0335693,0.0311279,0.0387573,0.0186157,0.0112915,0.0204468,0.0357056,-0.0213623,-0.0265503,0.0939941
31,4,0.0149536,0.0265503,0.0317383,0.0341797,0.0238037,0.0222778,0.0204468,0.0222778,0.00732422,0.0411987,-0.0183105,-0.0646973,0.0244141
32,0,0.0418091,0.0115967,0.0476074,0.0354004,0.00244141,0.015564,0.0183105,0.0283813,0.0140381,0.0326538,-0.0299072,-0.0418091,0.0283813
32,1,0.0439453,0.0311279,0.0631714,0.0363159,0.0177002,0.0463867,0.0161743,0.0146484,0.0424194,0.0366211,-0.0302124,-0.0561523,0.0317383
32,2,0.0466919,0.0134277,0.0195312,0.0112915,0.0177002,0.0198364,0.012207,0.0320435,0.0219727,0.0256348,-0.0418091,-0.0631714,0.0332642
32,3,0.0314331,0.0335693,-0.0125122,0.0341797,0.015564,0.0183105,0.0473022,0.0250244,0.020752,0.0280762,-0.0164795,-0.0665283,0.0134277
32,4,0.0296021,0.0247192,0.00671387,0.0210571,0.0213623,0.00976562,0.0106812,0.010376,0.00427246,0.0192261,-0.0256348,-0.0970459,0.0247192
33,0,-0.00305176,0.0231934,0.032959,0.0427246,0.0119019,0.015564,0.0317383,0.0253296,0.0143433,0.0158691,-0.0466919,-0.067749,0.0454712
33,1,-0.00579834,0.0201416,0.0341797,0.050354,0.0668335,0.0222778,0.0164795,-0.0256348,0.0228882,-0.00823975,0.00396729,-0.0769043,0.0540161
33,2,0.0195312,0.0326538,0.0280762,0.045166,0.0253296,0.0183105,0.0268555,0.0204468,0.0201416,0.0115967,-0.0259399,-0.0830078,0.0418091
33,3,0.00274658,0.0228882,0.0314331,0.0390625,0.0210571,0.0167847,0.00183105,0.0198364,0.0137329,0.0265503,-0.0259399,-0.0473022,0.0558472
33,4,0.00366211,0.0305176,0.017395,0.0357056,0.000305176,0.0183105,0.0262451,0.0250244,0.00396729,0.0411987,-0.020752,-0.0448608,0.0317383
34,0,0.0250244,0.0134277,0.0219727,0.0259399,0.0323486,-0.0100708,0.0219727,0.0131226,0.0250244,0.0311279,-0.0219727,-0.0213623,0.0250244
34,1,0.0375366,0.0396729,0.0466919,0.0567627,0.017395,0.0186157,0.0234985,0.00976562,0.00915527,0.0189209,-0.0259399,-0.0115967,0.0363159
34,2,0.038147,0.0308228,0.0210571,-0.00152588,0.0219727,0.0302124,0.078125,0.0213623,0.00915527,-0.045166,-0.0268555,-0.0131226,0.0704956
34,3,0.0299072,0.0283813,0.00366211,0.0326538,0.0436401,0.0299072,0.0186157,0.0216675,0.0271606,0.0170898,-0.0262451,-0.0125122,0.0338745
34,4,0.0308228,0.0274658,0.0186157,0.0628662,0.0308228,0.020752,0.0164795,0.0201416,0.00305176,0.0216675,-0.0439453,-0.0280762,0.0378418
35,0,0.0274658,-0.0216675,0.00976562,0.0442505,0.0268555,0.0299072,0.0140381,0.0137329,-0.0012207,0.0213623,-0.0289917,-0.0210571,0.0320435
35,1,0.0311279,0.0286865,0.0192261,0.0335693,0.032959,0.0396729,0.0784302,0.0088501,0.0134277,0.0613403,-0.0262451,-0.0390625,-0.0323486
35,2,0.0238037,0.0375366,0.0811768,0.03479,0.0302124,0.0668335,0.0457764,0.010376,0.0836182,0.0509644,-0.0323486,-0.027771,0.0390625
35,3,0.0198364,0.0421143,0.0241089,0.0485229,0.0289917,0.0100708,0.0256348,0.0244141,0.0408936,0.0112915,-0.0344849,-0.0256348,0.027771
35,4,-0.00366211,0.0247192,0.00488281,0.0384521,0.0112915,0.0204468,0.0256348,0.00701904,0.0164795,0.0292969,-0.0210571,-0.0228882,0.038147
36,0,0.0424194,0.0228882,0.043335,0.0299072,0.0210571,0.0262451,0.015564,0.0216675,0.0115967,0.0518799,-0.0305176,-0.0286865,0.0656128
36,1,-0.00213623,0.0326538,0.0360107,0.00640869,0.00640869,0.032959,-0.0308228,0.0204468,0.0286865,-0.0253296,0.00793457,-0.0152588,-0.0210571
36,2,0.000305176,0.0247192,0.0292969,0.0271606,0.0280762,0.0195312,0.0247192,0.0183105,0.0299072,0.0140381,-0.0195312,-0.0524902,0.0234985
36,3,0.0210571,0.0250244,0.0338745,0.00213623,0.0119019,0.0244141,0.0335693,0.0265503,0.0234985,0.0198364,-0.0231934,-0.0167847,0.0393677
36,4,-0.0115967,0.0247192,0.010376,0.0378418,-0.00335693,0.0524902,0.0292969,0.0177002,0.0582886,0.0265503,-0.0170898,-0.0247192,0.0134277
37,0,-0.0289917,0.0311279,0.043335,0.0338745,0.0280762,0.0250244,0.0280762,0.0552368,0.0134277,0.0106812,-0.0167847,-0.010376,0.0320435
37,1,-0.0326538,-0.0125122,0.0372314,0.027771,-0.0408936,0.0372314,0.0253296,-0.0384521,0.00946045,0.000610352,-0.0262451,-0.0180054,0.038147
37,2,0.00427246,0.0170898,0.0552368,0.0332642,0.0579834,0.0234985,0.0204468,0.06073,0.00793457,0.00823975,-0.0231934,-0.0311279,0.0308228
37,3,-0.0180054,-0.0146484,0.0201416,0.022583,0.0137329,0.0350952,0.0375366,0.0476074,0.0128174,0.0231934,-0.0314331,-0.0167847,0.0271606
37,4,0.0149536,0.0238037,0.0430298,0.0405884,0.0289917,-0.0210571,0.0265503,0.00396729,0.0366211,0.00793457,-0.0320435,0.0280762,0.0250244
38,0,0.0375366,0.0390625,0.0396729,0.027771,0.0305176,0.0234985,0.022583,0.00579834,0.0177002,0.00915527,-0.0167847,0.00457764,0.0372314
38,1,0.0692749,0.0512695,0.0265503,0.0302124,0.0302124,-0.0213623,0.0357056,0.012207,0.0146484,0.0204468,-0.0170898,0.0112915,0.0149536
38,2,0.0973511,0.0259399,0.0366211,0.0335693,0.0201416,0.0204468,0.0436401,0.0335693,0.0198364,-0.00762939,-0.0186157,0.0112915,0.032959
38,3,0.0939941,0.0256348,0.0253296,0.0354004,0.0180054,0.020752,0.0198364,0.0131226,0.0112915,0.00183105,-0.0186157,0.000915527,0.0408936
38,4,0.0558472,0.0302124,0.0271606,0.0250244,0.0332642,0.0387573,0.0213623,-0.0311279,0.0167847,-0.00305176,-0.0247192,-0.0314331,0.043335
39,0,0.012207,-0.000915527,0.0189209,0.0259399,0.0247192,0.0216675,0.0259399,0.010376,0.00366211,0.0167847,-0.015564,-0.0350952,0.0213623
39,1,-0.0524902,0.0643921,0.0088501,0.0201416,-0.0125122,0.0411987,0.0283813,0.0137329,0.0189209,0.00213623,-0.0119019,-0.0372314,0.0152588
39,2,-0.0152588,0.0518799,0.050354,0.0314331,0.0286865,0.0283813,0.0170898,0.0219727,0.0216675,-0.00183105,-0.0296021,-0.0500488,0.0189209
39,3,0.0323486,0.0448608,0.0540161,0.0222778,0.0222778,0.0430298,0.020752,0.0344849,0.0167847,0.00305176,-0.0247192,-0.0332642,0.0158691
39,4,0.0747681,0.0247192,0.0860596,0.022583,0.020752,0.0350952,0.0216675,0.0234985,0.0213623,0.0366211,-0.0250244,-0.00946045,0.0228882
40,0,0.103455,0.0378418,0.0268555,0.0219727,0.0372314,0.0106812,0.0387573,0.0149536,0.0119019,-0.00244141,-0.0180054,-0.00732422,0.0857544
40,1,0.067749,0.0253296,0.0378418,0.0357056,0.0387573,0.039978,0.0158691,0.0201416,0.00701904,0.0201416,-0.0198364,-0.0125122,0.0387573
40,2,0.078125,0.020752,0.00488281,0.0350952,0.0268555,0.022583,0.00305176,0.0109863,0.00762939,0.00396729,-0.015564,-0.015564,0.0219727
40,3,0.0598145,-0.0314331,0.00946045,0.0244141,0.0283813,0.00396729,0.0219727,0.0259399,0.010376,0.0164795,-0.0137329,0.0183105,0.0250244
40,4,0.0384521,0.0378418,0.00579834,0.0802612,0.0466919,0.0250244,0.0286865,0.0177002,0.0140381,0.0204468,-0.017395,0.00366211,0.0274658
41,0,0.0125122,0.0231934,0.00671387,0.0274658,0.0311279,0.0201416,0.0134277,0.0201416,0.0640869,0.00610352,-0.0271606,0.0689697,0.020752
41,1,-0.0405884,0.0692749,0.0253296,0.0311279,0.0390625,0.0393677,0.0234985,0.0378418,0.00335693,0.0189209,-0.0186157,0.0418091,0.0378418
41,2,-0.0650024,0.0256348,0.0292969,0.0311279,0.0366211,0.027771,0.0146484,0.0241089,0.0106812,0.0292969,-0.0332642,0.0256348,0.0292969
41,3,-0.122986,0.00396729,0.0360107,0.0152588,0.0457764,0.027771,0.0317383,0.00274658,0.00274658,0.0335693,0.0128174,0.0161743,0.0183105
41,4,-0.12207,0.017395,0.0305176,0.0161743,0.0253296,0.0128174,0.027771,-0.0012207,0.00915527,0.0256348,-0.0228882,0.0195312,0.0308228
42,0,-0.0521851,0.0247192,0.00976562,0.0137329,0.0286865,0.0244141,0.0296021,0.0231934,0.0167847,0.0305176,-0.0234985,0.017395,0.0222778
42,1,0.0994873,0.0296021,0.0390625,0.0183105,0.0286865,0.0305176,0.0189209,0.0311279,0.0128174,0.0204468,-0.00823975,0.0201416,0.0326538
42,2,0.206299,0.0354004,0.0265503,0.0271606,0.0201416,-0.00244141,0.0320435,0.0152588,-0.0314331,0.0289917,-0.0164795,0.0213623,0.0317383
42,3,0.187988,0.0271606,0.0332642,0.0354004,0.0299072,0.0247192,0.0369263,0.022583,0.0183105,0.057373,-0.017395,0.0109863,-0.00823975
42,4,0.0912476,0.0231934,-0.00793457,0.0152588,0.0518799,0.0799561,0.0326538,0.0231934,-0.00183105,0.0234985,-0.0189209,0.0256348,0.0119019
43,0,0.0537109,0.00701904,0.0601196,0.0186157,0.0341797,0.0167847,0.0164795,0.0219727,0.0244141,0.022583,-0.0228882,0.00976562,0.0283813
43,1,0.0170898,0.00366211,0.057373,0.0726318,0.0198364,0.0180054,0.0283813,0.0170898,0.0167847,0.0140381,-0.0131226,-0.015564,0.0283813
43,2,0.0149536,0.0350952,0.0238037,0.0241089,-0.0253296,0.0350952,0.027771,0.0216675,0.0143433,0.0143433,-0.0128174,-0.0506592,0.0119019
43,3,-0.00823975,0.0466919,-0.0183105,0.0222778,0.0338745,-0.0088501,0.0210571,0.0219727,0.0576782,0.0195312,-0.0164795,-0.0747681,0.0192261
43,4,-0.0286865,0.0540161,0.00579834,0.0100708,0.0344849,0.0244141,0.0314331,0.0372314,0.00793457,0.0146484,-0.0262451,-0.0387573,0.0292969
44,0,0.0402832,0.062561,0.010376,0.0238037,0.027771,0.0958252,0.045166,0.0201416,-0.0253296,-0.00213623,-0.0131226,-0.0088501,0.0115967
44,1,0.0747681,0.0418091,-0.0857544,0.0164795,0.0262451,0.0265503,0.0308228,0.0305176,0.0228882,0.0128174,-0.0177002,-0.00976562,0.0247192
44,2,0.0491333,0.0195312,-0.00640869,0.0253296,0.0265503,0.0979614,0.0430298,0.00244141,0.0726318,0.00823975,-0.00701904,-0.0357056,0.0350952
44,3,0.038147,0.012207,-0.00305176,0.0427246,0.0445557,0.0354004,0.0250244,0.0149536,0.0259399,0.00915527,-0.0164795,0.00732422,0.0292969
44,4,0.0534058,0.0366211,-0.0109863,0.027771,0.0479126,0.0210571,0.0305176,0.0640869,0.0186157,0.0131226,-0.0228882,0.0112915,0.0314331
45,0,0.0735474,0.0100708,-0.00274658,0.0466919,0.0375366,0.0253296,0.0521851,0.0201416,0.0302124,0.0180054,-0.0305176,0.0131226,0.0253296
45,1,0.0125122,0.0271606,-0.00823975,0.0482178,0.0238037,0.0311279,0.0143433,0.0149536,0.0161743,0.0158691,-0.0167847,0.00640869,0.0265503
45,2,0.0216675,0.0326538,0.0106812,0.0012207,0.0283813,0.03479,-0.00549316,0.0143433,0.0131226,-0.0247192,-0.00671387,0.00366211,0.0134277
45,3,0.0469971,0.0222778,-0.00244141,0.0460815,0.0216675,0.0396729,0.0265503,0.0241089,0.0198364,0.0262451,-0.0497437,0.00549316,0.0186157
45,4,0.0262451,0.0308228,-0.0109863,0.0204468,0.0259399,0.0241089,0.0460815,0.0540161,0.027771,0.0323486,-0.0125122,0.027771,0.0201416
46,0,0.0228882,0.0302124,0.038147,0.017395,0.0177002,0.0137329,0.0402832,0.0167847,0.0161743,0.0317383,0.0241089,0.0204468,0.0143433
46,1,0.0201416,0.027771,0.0170898,0.0192261,0.0210571,0.0244141,0.0167847,0.0323486,0.020752,0.0268555,-0.0137329,0.00793457,0.022583
46,2,0.0167847,0.027771,0.0234985,-0.0167847,0.0427246,0.0268555,-0.012207,0.0375366,0.00793457,0.0299072,-0.0164795,0.0112915,0.0640869
46,3,0.00335693,0.0296021,0.00762939,0.0192261,0.0231934,0.0183105,0.0241089,0.0210571,0.017395,0.0299072,-0.022583,0.00732422,0.0387573
46,4,-0.0131226,0.0268555,0.0201416,0.0198364,0.0488281,0.0354004,0.0305176,0.0109863,0.0137329,0.0161743,-0.00976562,0.000610352,-0.0201416
47,0,-0.010376,0.0222778,0.00701904,0.0143433,0.0302124,0.039978,0.0283813,0.010376,0.0189209,0.00549316,-0.0152588,0.00732422,0.0231934
47,1,0.00274658,0.0234985,0.022583,0.0421143,0.0332642,0.0265503,0,0.0265503,0.0106812,0.0576782,-0.00701904,0.00915527,0.0512695
47,2,0.0115967,0.0311279,0.00518799,0.0442505,0.0421143,0.0286865,0.0357056,0.00854492,0.0238037,0.0125122,-0.012207,0.0180054,0.017395
47,3,0.000915527,0.032959,0.0146484,0.010376,0.022583,0.0305176,0.0430298,0.0558472,0.00640869,0.00946045,0.0152588,0.0204468,0.0180054
47,4,0.0128174,0.0424194,0.00640869,0.0469971,0.0369263,0.0579834,0.0335693,0.0195312,0.00427246,0.000305176,-0.012207,0.0247192,0.0341797
48,0,0.0540161,-0.0012207,0.0158691,0.0234985,0.0219727,0.0408936,0.0335693,0.032959,0.0222778,0.00488281,-0.0634766,0.00732422,0.0210571
48,1,0.010376,0.0158691,0.00823975,0.0241089,0.0390625,0.0372314,0.0259399,0.0238037,-0.0189209,0.00976562,-0.0167847,0.0674438,0.00762939
48,2,-0.0012207,0.0180054,-0.00793457,0.032959,0.0372314,-0.020752,0.0314331,0.0314331,0.038147,0.0189209,-0.0231934,0.0213623,0.0289917
48,3,0.017395,0.012207,0.020752,0.0299072,0.0466919,0.0296021,0.0128174,0.0335693,0.0186157,0.0323486,-0.0119019,0.0500488,0.0256348
48,4,0.0222778,0.00457764,0.0222778,0.0158691,-0.0112915,0.0280762,0.0289917,0.00854492,0.0164795,0.0164795,-0.0189209,0.0402832,0.00793457
49,0,0.0140381,0.0161743,0.0463867,0.0369263,0.0320435,0.0424194,0.0265503,0.0177002,0.0143433,0.0241089,-0.0286865,0.039978,0.0109863
49,1,-0.00488281,0.0131226,0.0299072,0.0143433,0.0570679,0.0296021,0.0387573,0.0241089,0.0259399,0.0109863,-0.0119019,0.0100708,0.0137329
49,2,-0.0317383,-0.0387573,0.0549316,0.0167847,0.00457764,0.0460815,0.0265503,-0.00823975,0.0308228,0.0137329,-0.00396729,-0.0106812,0.00701904
49,3,-0.0375366,0.0210571,0.0976562,0.0262451,0.0341797,0.0634766,0.0366211,0.0286865,0.000610352,0.0112915,-0.0164795,-0.0738525,-0.0115967
49,4,-0.0286865,0.0283813,0.0390625,-0.0219727,0.0308228,0.038147,-0.0256348,0.0366211,0.0180054,-0.022583,-0.0152588,-0.0360107,0.0271606
50,0,-0.0497437,0.00946045,-0.012207,0.0143433,0.0338745,0.0415039,0.0561523,0.00610352,0.017395,0.0161743,-0.0201416,-0.00457764,0.00762939
50,1,-0.015564,0.0213623,0.0109863,0.0634766,0.0384521,0.0411987,0.0344849,0.0344849,0.020752,0.0112915,-0.0192261,0.00396729,0.00152588
50,2,-0.0283813,0.0158691,0.0161743,0.0115967,0.0494385,0.0372314,0.0265503,0.0262451,0.0262451,0.0216675,-0.0125122,0.012207,0.00915527
50,3,-0.0366211,0.0106812,-0.0131226,0.0112915,0.0332642,0.0512695,0.0411987,0.0390625,0.0210571,0.0140381,-0.0164795,-0.00213623,0.0195312
50,4,-0.032959,0.0222778,0.000305176,0.00335693,0.0259399,0.032959,0.0271606,0.0308228,0.027771,0.0186157,-0.0152588,-0.010376,0.0125122
51,0,-0.0228882,0.0213623,-0.0335693,0.0296021,0.0442505,0.0469971,0.0305176,0.0149536,0.0210571,0.010376,-0.0100708,0.00671387,0.0134277
51,1,0.0311279,-0.0143433,0.0183105,0.027771,0.0442505,0.0445557,0.0424194,0.0915527,0.0402832,-0.000915527,-0.012207,0.00915527,0.0112915
51,2,0.0106812,0.0137329,0.015564,0.0228882,0.0308228,0.0216675,0.0335693,0.0250244,0.0305176,0.0128174,-0.0167847,0.00213623,-0.00976562
51,3,0.0192261,0.0119019,0.0128174,0.00854492,0.0430298,0.0308228,0.0616455,0.0390625,0.0238037,0.0341797,-0.0323486,0.010376,0.0201416
51,4,0.0250244,0.00396729,0.00579834,0.0482178,0.0485229,0.0357056,0.0216675,0.0588989,0.0387573,0.00488281,-0.0344849,0.0354004,0.0210571
52,0,0.0320435,-0.050354,0.0259399,0.00976562,0.0387573,0.0354004,0.0311279,0.0244141,0.0161743,-0.00183105,-0.0296021,0.0219727,0.00244141
52,1,0.0393677,0.000610352,0.0137329,0.0170898,0.0390625,0.0314331,0.0247192,0.032959,0.0253296,0.00183105,-0.0216675,0.0286865,0.0369263
52,2,0.0219727,0.00152588,0.00701904,0.0256348,0.0283813,0.0341797,0.0286865,0.0369263,0.0338745,0.0106812,-0.020752,0.0335693,0.0131226
52,3,0.0354004,0.00640869,-0.00305176,0.0131226,0.0213623,0.0106812,0.0314331,0.0354004,0.0268555,0.0369263,-0.0289917,0.0305176,0.00976562
52,4,0.010376,0.0482178,0.0210571,0.0177002,0.00457764,0.0375366,0.0292969,0.0405884,0.0274658,0.0112915,-0.0241089,0.0143433,0.0274658
53,0,0.00640869,0.00488281,0.0149536,0.0238037,0.0204468,0.0283813,0.0253296,0.0210571,0.0201416,0.0186157,-0.0323486,0.0238037,0.0192261
53,1,-0.0180054,0.00732422,0.0265503,0.00976562,0.0308228,0.0210571,0.0311279,0.0241089,0.0167847,0.0244141,-0.0650024,0.000610352,0.00701904
53,2,0.0292969,0.0152588,0.0375366,0.0109863,0.0234985,0.0411987,0.0134277,0.0506592,0.0198364,0.020752,-0.0311279,0.00579834,0.00823975
53,3,0.00732422,-0.00244141,0.0247192,0.00335693,0.0375366,0.0158691,0.0540161,-0.0119019,0.0314331,0.0219727,-0.0213623,0.0244141,0.0128174
53,4,0.0247192,-0.00335693,0.0186157,0.0149536,0.0384521,0.0247192,0.0149536,0.0372314,0.027771,0.0161743,-0.022583,0.0100708,0.00549316
54,0,0.0125122,0.00518799,0.0311279,0.0180054,0.0534058,0.0354004,0.0332642,0.0311279,0.0286865,-0.03479,-0.0357056,0.00976562,-0.0598145
54,1,0.00701904,0.00915527,0.0363159,0.0167847,0.0234985,0.0408936,0.0283813,-0.00976562,0.03479,-0.00213623,-0.020752,0.00305176,0.017395
54,2,0.00946045,0.00579834,0.0387573,-0.0292969,0.0259399,0.0415039,-0.0485229,0.0299072,0.0088501,0.0198364,-0.0250244,0.000610352,0.0152588
54,3,0.0228882,0.0112915,0.0253296,0.0170898,0.00183105,0.0369263,0.0421143,0.0283813,0.0250244,0.0274658,-0.010376,0.0192261,0.0210571
54,4,0.0338745,0.0161743,0.0680542,0.0125122,0.0195312,0.0375366,0.015564,0.0241089,0.0262451,0.0247192,-0.0250244,0.0146484,0.0259399
55,0,0.0119019,-0.010376,0.00671387,0.010376,0.0100708,0.00701904,0.0268555,0.0289917,0.03479,0.0247192,-0.0228882,0.0457764,0.00396729
55,1,0.0274658,0.017395,0.0112915,0.0109863,0.0265503,-0.0515747,0.0311279,0.0195312,0.0189209,0.0283813,-0.0238037,0.0164795,0.0204468
55,2,0.0131226,0.00213623,0.0183105,-0.00274658,0.0317383,0.0164795,0.0421143,0.0308228,0.0357056,0.0369263,-0.0183105,0.0238037,0.0167847
55,3,0.0384521,0.000305176,0.072937,0.0137329,0.0256348,0.0299072,0.0357056,0.0332642,0.0314331,0.00823975,-0.0283813,0.0497437,0.0265503
55,4,0.0357056,0.00305176,0.000610352,0.022583,0.0317383,0.0296021,0.0274658,0.038147,0.03479,0.0674438,-0.0283813,0.0375366,0.0128174
56,0,0.0302124,-0.00244141,0.0109863,0.0195312,0.0100708,0.032959,0.0231934,0.0421143,0.027771,-0.00274658,-0.0317383,0.0430298,0.0183105
56,1,0.0253296,-0.00427246,0.0164795,0.0131226,0.00823975,0.0234985,0.017395,0.00762939,0.0140381,0.0341797,-0.0286865,0.0204468,0.015564
56,2,0.0231934,-0.0131226,0.0268555,0.0177002,0.0222778,0.0326538,0.015564,0.0405884,0.0262451,0.0418091,-0.0323486,-0.00946045,0.0167847
56,3,0.0137329,0.0308228,0.0143433,0.0109863,0.0265503,0.022583,0.010376,0.0247192,0.0161743,0.0131226,-0.0234985,-0.0308228,0.0198364
56,4,0.0390625,-0.00823975,0.0289917,0.0195312,0.0201416,0.0131226,0.0305176,0.0344849,0.0396729,0.039978,-0.0292969,-0.0332642,0.0189209
57,0,0.0186157,-0.00671387,0.0448608,0.00732422,0.0115967,0.0265503,0.0241089,0.00640869,0.0378418,0.0296021,-0.0286865,-0.012207,0.0088501
57,1,-0.0366211,0.000305176,0.043335,0.0482178,0.0115967,0.0372314,0.0564575,0.0357056,0.0350952,0.0762939,-0.0393677,-0.00366211,0.0149536
57,2,0.0521851,0,0.0128174,0.0256348,0.00732422,0.00396729,0.0286865,0.0210571,0.0256348,0.0268555,-0.0180054,0.020752,0.00732422
57,3,-0.000305176,0.020752,0.00396729,-0.0234985,0.00640869,0.0198364,-0.00915527,0.0268555,0.0332642,0.0259399,-0.0149536,0.0613403,0.0238037
57,4,-0.010376,0.0106812,0.0250244,0.0201416,0.0280762,0.0244141,0.0183105,0.0222778,0.0170898,0.0201416,0.00427246,0.0820923,0.0125122
58,0,-0.0216675,-0.0302124,-0.00823975,0.0204468,-0.045166,0.039978,0.0247192,-0.0158691,0.0384521,0.0253296,-0.0241089,0.0411987,0.017395
58,1,0.00701904,0.00274658,-0.0183105,0.0164795,-0.00213623,0.0274658,0.0326538,0.00701904,0.0372314,0.022583,-0.0100708,0.0234985,0.0195312
58,2,0.0271606,0.0238037,0.00366211,0.00732422,0.00518799,0.0418091,0.0390625,-0.0164795,0.0326538,0.0637817,-0.0231934,-0.00152588,0.0201416
58,3,-0.0296021,0.0161743,0.0192261,0.0222778,0.0192261,0.0390625,-0.0180054,0.0247192,0.0350952,0.0198364,-0.0314331,-0.0134277,0.0238037
58,4,-0.0222778,0.0219727,-0.00915527,0.00640869,0.00701904,-0.0241089,0.0167847,0.0164795,-0.0198364,0.0109863,-0.0311279,-0.0354004,0.015564
59,0,0.0506592,0.0143433,0.022583,0.0167847,0.0231934,0.0311279,0.0231934,0.0405884,0.106506,0.03479,-0.0305176,0.0543213,-0.00549316
59,1,0.102844,0.0476074,0.0308228,0.0177002,0.0186157,0.0119019,0.0314331,0.0289917,0.0564575,0.0198364,-0.0332642,-0.0161743,0.00823975
59,2,0.117798,0.0115967,0.0305176,0.0152588,0.00976562,0.0161743,0.0152588,0.0317383,0.0234985,0.0106812,-0.0222778,-0.0204468,-0.0012207
59,3,0.0845337,0.00854492,0.0314331,0.000915527,0.0137329,0.0177002,0.0894165,0.0360107,0.0305176,0.0863647,-0.020752,0.0302124,-0.0415039
59,4,0.0906372,0.0393677,0.0180054,0.0180054,0.0241089,0.0320435,0.0454712,0.0384521,0.0546265,0.0256348,-0.0164795,0.0106812,0.00732422
60,0,0.0463867,0.0131226,0.010376,0.0201416,0.0119019,0.0219727,0.0326538,0.0250244,0.0247192,-0.0253296,-0.0149536,-0.000915527,0.0292969
60,1,0.0335693,0.00701904,-0.00793457,0.0253296,0.0219727,0.0326538,0.027771,0.0244141,0.0305176,0.0186157,-0.0106812,0.0408936,0.0213623
60,2,0.0234985,-0.0088501,0.0140381,0.0177002,-0.00579834,0.0189209,0.0204468,0.0744629,0.0167847,0.022583,-0.0762939,0.0427246,0.000305176
60,3,-0.00671387,0.0152588,0.0231934,0.0289917,0.0088501,0.0259399,0.0393677,0.0320435,0.0357056,0.00793457,-0.0219727,-0.0198364,0.0161743
60,4,-0.0222778,0.00976562,0.038147,0.0338745,0.0140381,0.010376,0.0274658,0.0274658,0.039978,0.0250244,-0.0289917,0.0488281,0.0253296
61,0,-0.0650024,0.0253296,0.0427246,0.0210571,0.0259399,0.062561,0.0146484,0.00549316,0.0567627,0.0271606,-0.0305176,0.0494385,0.00854492
61,1,-0.0595093,0.0143433,0.0189209,0.0384521,0.0210571,0.032959,-0.00976562,0.0234985,0.0292969,0.0241089,-0.00732422,0.0274658,0.0149536
61,2,-0.0741577,0.00671387,0.0112915,0.0357056,0.0134277,0.0149536,0.0408936,0.0286865,0.0415039,0.0335693,-0.0360107,0.0149536,0.0115967
61,3,-0.062561,0.00152588,-0.0100708,0.022583,-0.000915527,0.0268555,0.0396729,0.0119019,0.0357056,0.0405884,-0.0213623,-0.00793457,0.00854492
61,4,0.00671387,0.0265503,0.00732422,-0.0320435,0.0189209,0.0247192,-0.0241089,0.0320435,0.03479,0.0189209,-0.0299072,-0.00732422,0.0137329
62,0,0.100708,0.0442505,0.00640869,0.0387573,0.00274658,0.015564,0.0512695,0.0338745,0.0521851,0.0259399,-0.0363159,0.00366211,0.0216675
62,1,0.0515747,0.0302124,0.0119019,0.0183105,0.0222778,0.0268555,0.0317383,0.0427246,0.0354004,0.0280762,-0.0302124,0.03479,0.0183105
62,2,0.0567627,0.0311279,0.0405884,0.0302124,0.0143433,-0.0283813,0.0350952,0.0222778,0.0167847,0.015564,-0.0253296,0.0390625,0.00762939
62,3,0.0588989,0.0115967,0.0250244,0.0305176,0.0247192,0.0256348,0.0231934,0.0839233,0.0201416,0.0238037,-0.0305176,0.0534058,0.0146484
62,4,0.0830078,0.00579834,0.0430298,0.0305176,0.0137329,0.0152588,0.0311279,0.0457764,0.0302124,0.0390625,-0.0320435,0.0274658,-0.00701904
63,0,0.0601196,0.00488281,0.043335,0.0354004,0.0149536,0.00427246,0.0216675,0.0210571,0.00854492,0.0311279,-0.0283813,-0.0292969,0.0280762
63,1,0.0662231,0.00457764,0.027771,0.0186157,0.015564,0.0256348,0.0280762,0.0189209,0.0357056,0.0311279,-0.0323486,-0.000610352,0.0112915
63,2,0.0930786,-0.0234985,0.0183105,0.0476074,0.0262451,0.0219727,0.0238037,0.0335693,0.0393677,0.0149536,-0.0332642,-0.0131226,0.0180054
63,3,0.0634766,0.0253296,0.0350952,0.0192261,0.022583,0.0228882,0.0335693,0.0296021,0.0320435,0.0152588,-0.0314331,0.0231934,0.0234985
63,4,0.0772095,0.00854492,0.0292969,0.043335,0.00549316,0.0256348,0.0424194,0.03479,0.0134277,0.0289917,-0.0354004,-0.0170898,0.0140381
64,0,0.00793457,-0.0463867,0.0131226,0.0262451,0.0106812,0.0186157,0.0256348,0.0323486,0.0177002,0.0241089,-0.0323486,0.0253296,0.0186157
64,1,0.0915527,0.0115967,0.0183105,0.0378418,0.00854492,0.0152588,0.0177002,0.0350952,0.0216675,0.0177002,-0.0415039,0.0354004,-0.0332642
64,2,0.159302,0.0216675,0.00305176,0.0317383,-0.0177002,0.0143433,0.0219727,0.0149536,0.0286865,0.0296021,-0.0482178,0.0323486,0.0198364
64,3,0.127563,0.0152588,-0.00732422,0.03479,0.00305176,0.0231934,0.0738525,0.0308228,0.0274658,-0.0372314,-0.0283813,0.0299072,0.0500488
64,4,0.0759888,0.00427246,0.00671387,0.0396729,0.0210571,0.000610352,0.00335693,0.0317383,0.0140381,0.0262451,-0.0299072,0.0372314,0.0292969
65,0,0.0387573,0.00732422,-0.0161743,0.0305176,0.0814819,0.010376,0.0250244,-0.0167847,0.0271606,0.0344849,-0.0274658,0.0119019,0.0424194
65,1,-0.0308228,0.0265503,0.010376,0.0384521,-0.00427246,-0.00396729,0.0338745,0.0192261,0.0616455,0.00762939,-0.0250244,-0.0140381,0.00274658
65,2,-0.0311279,0.0213623,0.0186157,-0.0119019,0.0149536,0.0140381,0.0177002,0.0167847,0.0299072,0.0668335,-0.0338745,0.00701904,0.017395
65,3,0.00640869,0.0143433,0.015564,0.0198364,-0.00427246,0.0299072,0.0158691,0.0286865,-0.00274658,0.0320435,-0.0378418,-0.0234985,0.0393677
65,4,-0.0183105,0.0128174,0.0204468,0.0323486,0.00946045,0.0164795,0.0262451,0.0289917,0.022583,0.010376,-0.0460815,0.0335693,-0.0134277
66,0,-0.0302124,0.0320435,0.0222778,0.0421143,0.0134277,0.0231934,0.0283813,0.0186157,0.0378418,0.0271606,-0.022583,0.0415039,0.0271606
66,1,0.104675,0.0256348,0.00152588,0.0427246,0.0137329,0.0109863,0.0109863,0.0265503,0.0314331,0.039978,-0.0485229,0.0680542,0.0622559
66,2,0.0827026,0.0201416,0.00579834,0.0320435,0.0109863,0.0128174,0.0100708,0.0268555,0.0186157,0.0350952,-0.0366211,0.0585938,0.0247192
66,3,0.126648,0.0222778,0.032959,0.038147,0.0314331,0.0219727,0.0250244,0.0109863,0.0906372,0.0393677,-0.0411987,0.0299072,0.0210571
66,4,0.136414,0.00976562,0.0289917,0.057373,0.0131226,0.015564,0.00854492,0.0775146,0.0219727,0.0234985,-0.0311279,0.0305176,0.0363159
67,0,0.0790405,0.0143433,0.0839233,0.0350952,0.012207,0.0152588,0.0201416,0.0183105,0.0183105,0.0405884,-0.0234985,0.0256348,0.0241089
67,1,0.0689697,-0.0204468,0.0265503,0.0378418,-0.0408936,0.0100708,0.0180054,-0.0106812,0.0241089,0.0360107,-0.0366211,0.0213623,0.0396729
67,2,0.0546265,0.0869751,0.0314331,0.0268555,0.0665283,0.00915527,0.0164795,0.0595093,0.0180054,0.0396729,-0.0314331,0.022583,0.0259399
67,3,0.0418091,0.0366211,0.0210571,0.0299072,0.00854492,0.0341797,0.0143433,0.0137329,0.032959,0.0466919,-0.0256348,0.0830078,0.0360107
67,4,0.0457764,0.0497437,0.00244141,0.0289917,0.0283813,0.0180054,0.0228882,0.00274658,0.0204468,0.0372314,-0.0152588,0.03479,0.0222778
68,0,0.0408936,0.0216675,0.0387573,0.0292969,0.0180054,0.0289917,0.0115967,0.0140381,0.0393677,0.0494385,-0.0296021,-0.00976562,0.0308228
68,1,0.0314331,0.0189209,0.0195312,0.027771,0.0314331,-0.00183105,0.010376,0.0765991,0.0192261,0.0274658,-0.0430298,0.0378418,0.0323486
68,2,0.0204468,0.0164795,0.0216675,0.0286865,0.032959,0.0183105,0.0189209,0.00946045,0.0323486,0.0350952,-0.0323486,0.0326538,0.00244141
68,3,-0.0167847,0.0219727,0.0222778,0.067749,0.00366211,0.0259399,0.0378418,0.022583,0.0216675,0.0112915,-0.0305176,0.0335693,0.0143433
68,4,0.0195312,0.0195312,0.0247192,0.0375366,0.0134277,0.0283813,0.022583,0.0170898,0.0189209,0.0402832,-0.0161743,0.0341797,0.0137329
69,0,0.00701904,0.0234985,0.0231934,0.0320435,-0.0204468,0.0222778,0.017395,0.067749,0.0100708,0.0262451,-0.0283813,0.0314331,0.0247192
69,1,0.0128174,0.00579834,0.0448608,0.0234985,0.0253296,0.0125122,0.0320435,-0.000610352,0.0149536,0.0366211,-0.0463867,0.027771,0.0357056
69,2,0.0262451,0.00640869,0.0198364,0.0271606,0.00732422,0.0271606,0.0177002,0.0259399,0.032959,0.0360107,-0.0231934,0.057373,0.0241089
69,3,0.022583,0.038147,0.0219727,-0.000305176,0.015564,0.0158691,0.0183105,0.0314331,0.0256348,0.0421143,-0.0213623,0.0170898,0.0186157
69,4,0.000610352,0.0436401,0.0231934,0.0305176,0.0198364,0.0177002,0.0222778,0.0292969,0.0170898,0.0180054,-0.0378418,0.0198364,0.0210571
70,0,0.00946045,0.0506592,0.0363159,0.0335693,-0.0109863,0.0161743,0.0219727,0.017395,0.0222778,0.0357056,-0.0363159,0.0170898,0.085144
70,1,0.0289917,0.0283813,0.0338745,0.0466919,0.0161743,0.015564,0.0778198,0.0247192,0.0241089,0.0274658,-0.0415039,0.0369263,0.0216675
70,2,-0.00488281,0.0265503,0.0241089,0.0210571,0.0125122,-0.0167847,0.0292969,0.0238037,0.0308228,0.0332642,-0.0283813,0.0387573,0.0134277
70,3,0.000915527,0.00549316,0.0704956,0.0283813,0.00366211,0.0567627,0.0216675,0.015564,0.0595093,0.0296021,-0.0302124,0.0244141,0.0219727
70,4,0.020752,0.0106812,0.00579834,0.0628662,0.00732422,0.0106812,0.00915527,0.0250244,0.0244141,0.0268555,-0.0271606,0.0360107,0.0219727
71,0,0.0170898,0.0335693,0.0372314,0.0161743,0.0192261,0.0192261,0.0167847,0.0643921,0.0219727,0.039978,-0.0344849,0.0271606,0.0216675
71,1,0.0216675,0.0393677,0.0265503,0.017395,0.00823975,-0.0317383,0.0238037,0.0311279,-0.0442505,0.0332642,-0.022583,-0.0125122,0.0357056
71,2,0.0244141,0.0369263,0.0280762,0.00793457,0.0262451,0.0152588,0.0204468,0.032959,0.0311279,0.0558472,-0.0308228,0.0292969,0.0219727
71,3,0.0564575,0.0442505,0.0152588,0.0189209,0.00946045,-0.0109863,0.0180054,-0.0262451,0.0234985,0.0460815,-0.0247192,0.0234985,0.0323486
71,4,0.0442505,-0.0338745,0.0131226,0.0134277,0.0167847,0.0170898,0.0213623,0.010376,0.0280762,0.0405884,-0.0299072,-0.00946045,0.0326538
72,0,0.0543213,0.0250244,0.0125122,0.0088501,0.0637817,0.0109863,0.015564,0.0115967,0.0234985,0.0354004,-0.0363159,0.0274658,0.0326538
72,1,0.0592041,0.0595093,0.0109863,0.0357056,0.017395,0.0088501,0.0262451,0.0088501,0.0161743,0.0393677,-0.0256348,0.0231934,0.0332642
72,2,0.0250244,0.0302124,0.0131226,0.0262451,0.0149536,0.00244141,0.020752,-0.00152588,0.017395,0.0228882,-0.0164795,0.0524902,0.0238037
72,3,0.0387573,0.0244141,-0.0164795,0.0454712,0.0170898,0.0170898,0.0189209,0.0302124,0.0186157,0.0302124,-0.0344849,0.0292969,0.0515747
72,4,0.0338745,0.0280762,0.00427246,0.027771,0.0283813,0.0250244,0.0506592,0.00854492,0.0161743,0.0445557,-0.0305176,0.0335693,0.0326538
73,0,0.0323486,0.0222778,-0.0292969,0.0204468,0.00244141,0.0909424,0.00427246,0.0112915,-0.0354004,0.0387573,-0.0314331,0.0570679,0.0320435
73,1,0.0421143,0.0158691,0.0152588,0.00946045,0.0390625,0.00854492,0.0247192,0.0210571,0.0241089,0.0317383,-0.00183105,0.0332642,0.0283813
73,2,0.0408936,0.0332642,0.010376,0.0115967,0.0247192,0.00610352,0.0131226,0.0238037,0.00823975,0.0268555,0.010376,0.0454712,0.0341797
73,3,0.0204468,0.0421143,0.0167847,0.017395,-0.00915527,0.000610352,0.0265503,0.00732422,0.0296021,0.038147,-0.0369263,-0.0466919,0.0396729
73,4,0.015564,0.0250244,0.0628662,-0.00427246,0.0186157,0.0283813,0.0326538,0.00213623,0.020752,0.0234985,-0.0204468,0.0372314,0.0354004
74,0,0.0262451,0.0195312,0.0460815,0.0161743,0.0119019,-0.0164795,0.0152588,0.00457764,0.00640869,0.0271606,-0.0250244,0.0390625,0.0250244
74,1,0.0253296,0.00274658,0.057373,0.0143433,0.00823975,0.00366211,0.0137329,0.0186157,0.020752,0.0158691,-0.0311279,0.057373,0.0372314
74,2,0.0360107,0.0137329,0.0180054,0.0289917,0.020752,0.0167847,-0.0192261,0.0119019,0.0213623,0.015564,-0.0259399,0.0442505,0.0317383
74,3,0.0469971,0.0296021,0.115051,0.0244141,0.0253296,0.062561,0.00915527,0.00427246,0,0.0228882,-0.0177002,0.055542,0.0341797
74,4,0.0289917,0.0222778,0.0408936,0.0219727,0.0308228,0.00457764,0.00823975,0.00274658,0.0100708,0.00946045,-0.0268555,0.0436401,0.012207
75,0,-0.0241089,0.03479,0.00732422,0.0299072,-0.0350952,0.0177002,0.0192261,0.0314331,0.00793457,0.0158691,-0.0164795,0.0302124,0.0088501
75,1,-0.0637817,0.0186157,0.0088501,0.0131226,0.0161743,0.000610352,0.0201416,-0.00366211,0.0411987,0.0305176,-0.0369263,0.0231934,0.0247192
75,2,-0.0997925,0.0372314,0.0308228,0.00762939,0.0106812,0.0109863,0.0137329,0.0265503,0.00549316,0.0308228,-0.0146484,0.00915527,0.0375366
75,3,-0.0845337,0.0405884,0.0460815,-0.00366211,0.0152588,0.0012207,0.0314331,0.0012207,0.0228882,0.00946045,-0.0100708,-0.00183105,0.0177002
75,4,-0.0326538,0.0561523,0.0466919,0.0125122,0.0357056,0.0134277,0.0125122,0.00335693,0.0286865,0.022583,0.00701904,0.00396729,0.0393677
76,0,0.0680542,0.0985718,0.039978,-0.000915527,0.055542,0.0177002,0.032959,0.0271606,0.00854492,0.0289917,-0.0283813,-0.0012207,0.0369263
76,1,0.0723267,0.0494385,0.0436401,0.0180054,0.017395,0.010376,0.0115967,0.0158691,0.017395,0.0518799,-0.0198364,-0.00274658,0.0338745
76,2,0.0918579,0.0201416,0.0189209,0.010376,0.0186157,0.00457764,0.0088501,0.0183105,0.00946045,0.0311279,-0.0280762,0.0244141,0.0402832
76,3,0.065918,0.03479,0.0262451,0.0112915,0.027771,0.0238037,0.0546265,0.0167847,0.00518799,0.0765991,-0.0320435,0.0469971,0.0241089
76,4,0.0976562,0.0289917,-0.00427246,0.0192261,0.0167847,0.0161743,0.0222778,0.0256348,0.000305176,0.0445557,-0.0106812,0.0332642,-0.00915527
77,0,0.0494385,0.0335693,0.0137329,-0.00427246,-0.00335693,0.0143433,-0.0189209,0.0112915,0.0338745,0.0585938,-0.0326538,0.0109863,0.0454712
77,1,0.0424194,0.0228882,0.022583,-0.00213623,0.0170898,0.0216675,0.00274658,0.0100708,0.022583,0.0274658,-0.0213623,0.0180054,0.0244141
77,2,0.0436401,0.0250244,0.00946045,-0.0234985,0.0280762,0.0332642,0.0167847,0.0219727,0.0189209,0.0723267,-0.0299072,-0.00915527,0.00274658
77,3,0.038147,0.0439453,0.00610352,0.0195312,0.020752,0.0137329,0.00732422,0.000610352,0.0305176,0.0259399,-0.0259399,0.010376,0.0259399
77,4,0.101624,0.012207,0.0161743,0.00213623,0.0271606,0.012207,-0.00427246,0.010376,0.0262451,0.0292969,-0.0271606,0.0360107,0.0308228
78,0,0.0814819,0.0405884,0.0012207,0.000610352,0.00793457,0.0149536,0.0180054,0.0244141,0.0198364,0.0198364,-0.0234985,-0.015564,0.0378418
78,1,0.0250244,0.0323486,0.0192261,0.0170898,0.0515747,0.00457764,0.0134277,0.0112915,0.00213623,0.0198364,0.010376,0.0161743,0.0366211
78,2,0.0689697,0.0491333,-0.00610352,-0.0177002,0.0344849,0.0689697,0.00152588,0.0192261,0.0140381,0.0213623,-0.0253296,0.0286865,0.0344849
78,3,0.0756836,0.0317383,0.0350952,0.00946045,0.0109863,-0.00915527,0.0146484,0.020752,0.0222778,-0.0415039,-0.0317383,0.0314331,0.0335693
78,4,0.0708008,0.0219727,0.0177002,0.0125122,0.00152588,0.0314331,0.0247192,0.0619507,0.0128174,0.0128174,-0.0112915,0.0518799,0.0317383
79,0,0.0723267,0.0241089,0.0128174,0.00366211,0.0424194,0.0125122,0.0283813,0.0152588,0.0189209,-0.00671387,-0.0161743,0.0610352,0.0506592
79,1,0.045166,0.0274658,0.0289917,0.00274658,-0.0198364,0.0183105,0.0149536,-0.00427246,0.0250244,0.00976562,-0.0186157,0.06073,0.0247192
79,2,0.0628662,0.0506592,0.0531006,0.0186157,0.015564,0.0192261,0.0137329,0.0354004,0.0216675,0.0143433,-0.0292969,0.0448608,0.0405884
79,3,0.0424194,0.0643921,0.0320435,0.0302124,0.0509644,0.0268555,0.0119019,0.0250244,0.0161743,0.00427246,-0.0363159,0.0421143,0.0283813
79,4,-0.00823975,0.0366211,-0.0189209,0.0265503,0.0372314,0.00396729,0.0146484,0.0109863,0.0170898,0.0177002,-0.0216675,0.0527954,0.0466919
80,0,0.0527954,0.0326538,0.0442505,-0.0131226,0.0387573,0.0186157,0.0360107,0.00976562,0.0198364,0.0183105,-0.0177002,0.0335693,0.0390625
80,1,-0.0238037,0.0717163,0.0598145,0.0158691,0.0350952,0.0177002,0.0360107,0.0170898,0.00213623,0.0338745,-0.0283813,-0.00396729,0.0268555
80,2,-0.0375366,0.0332642,0.0524902,0.00946045,0.0274658,-0.00427246,0.0192261,0.0198364,0.0198364,0.0234985,-0.0784302,-0.0158691,0.039978
80,3,-0.0613403,0.0189209,0.0424194,-0.0521851,0.0302124,0.0231934,-0.0109863,0.000610352,0.0268555,-0.0418091,0.000610352,0.0088501,0.00305176
80,4,-0.00610352,0.0350952,0.0338745,0.0311279,0.0332642,0.0143433,0.00946045,0.00915527,0.012207,0.0213623,-0.020752,0.043335,0.0900269
81,0,-0.0302124,0.0323486,0.00213623,0.00244141,0.0137329,0.0183105,0.0210571,0.0152588,0.0137329,0.0134277,-0.0109863,0.0567627,0.0265503
81,1,-0.0195312,0.0280762,0.0274658,0.00274658,0.0405884,0.0170898,0.0100708,-0.00488281,0.0137329,0.0119019,-0.0213623,0.0747681,-0.0369263
81,2,0.00518799,0.0466919,0.0183105,0.0231934,-0.015564,0.0198364,0.0195312,0.057373,0.0210571,0.00640869,-0.0170898,0.062561,0.0332642
81,3,0.057373,0.0311279,0.0241089,0.010376,0.0296021,0.0115967,0.00579834,-0.00305176,0.0241089,0.020752,-0.0189209,0.0216675,0.055542
81,4,-0.0411987,0.0256348,0.0335693,0.0341797,0.0292969,0.0088501,0.0195312,0.0506592,0.0308228,0.0100708,-0.0515747,0.0189209,0.0231934
82,0,-0.0012207,0.0921631,0.0234985,0.00518799,-0.0262451,0.0332642,0.00701904,0.106812,0.0234985,0.0106812,-0.032959,0.0170898,0.0338745
82,1,0.0128174,-0.0149536,0.0088501,0.00274658,0.032959,0.000915527,0.0302124,0.0946045,0.0106812,0.0241089,-0.0228882,0.0201416,0.0231934
82,2,0.00274658,0.0439453,0.0183105,0.00213623,0.0332642,0.0222778,0.0170898,0.0494385,0.00793457,0.00427246,-0.0204468,0.0186157,-0.00244141
82,3,0.0436401,0.0375366,0.0204468,0.0149536,0.0335693,-0.0167847,0.0241089,0.0854492,0.0488281,0.000305176,-0.0271606,0.0170898,0.032959
82,4,0.0888062,0.0286865,0.0140381,0.0360107,0.0289917,0.03479,0.0109863,0.0680542,0.000915527,-0.00213623,-0.0152588,0.00915527,-0.00274658
83,0,0.0857544,0.0576782,-0.00579834,0.020752,0.0622559,0.0302124,0.0363159,0.045166,0.0152588,-0.0115967,-0.0256348,0.0375366,0.0180054
83,1,0.0802612,0.0405884,-0.00274658,0.0201416,0.0228882,0.0152588,0.0231934,-0.0280762,0.0234985,-0.0161743,-0.0567627,0.0137329,0.0323486
83,2,0.0872803,0.0570679,0.0259399,0.0244141,0.0268555,0.0335693,0.0100708,-0.0115967,0.0146484,-0.0201416,-0.0259399,-0.00244141,0.0402832
83,3,0.0650024,0.0549316,0.0177002,0.032959,0.0241089,0.0183105,0.015564,0.0314331,0.0186157,-0.0460815,-0.0238037,0.00793457,0.0259399
83,4,0.0540161,0.039978,0.0115967,0.0469971,0.00946045,0.022583,0.0302124,0.0244141,0.0195312,-0.0317383,-0.0262451,-0.00427246,0.057373
84,0,0.0357056,0.0640869,0.0256348,0.050354,0.078125,0.0286865,0.0289917,0.0637817,0.0198364,-0.0454712,-0.0149536,0.00854492,0.0216675
84,1,0.0436401,0.0271606,-0.000915527,0.0402832,0.0219727,0.0244141,-0.0119019,0.0942993,0.0201416,-0.0921631,-0.0204468,-0.00610352,-0.0390625
84,2,0.0378418,0.00335693,0.0128174,0.0384521,0.0234985,0.0338745,0.0228882,0.123901,0.00701904,-0.0387573,-0.0131226,0.012207,0.0265503
84,3,0.0177002,0.0280762,0.0195312,0.0747681,0.0344849,0.0289917,0.0253296,0.0918579,0.0140381,-0.0512695,-0.0112915,0.0305176,0.039978
84,4,0.038147,0.0427246,0.0256348,0.0369263,0.0234985,0.0357056,0.0299072,-0.0177002,0.0106812,-0.0228882,-0.0152588,0.0448608,0.0253296
85,0,0.00366211,0.00976562,0.0106812,0.0344849,0.0375366,0.0387573,0.0140381,-0.0692749,0.00488281,-0.039978,-0.020752,0.0234985,0.0088501
85,1,0.00457764,0.027771,-0.000610352,0.0338745,0.0369263,0.0198364,0.0259399,-0.0488281,-0.00152588,-0.0292969,-0.0250244,0.0292969,0.0195312
85,2,0.00732422,0.0326538,0.0125122,0.050354,0.032959,0.00366211,0.0210571,-0.0592041,0.043335,-0.0311279,-0.00823975,0.0247192,0.0308228
85,3,-0.000915527,0.0231934,0.0305176,0.0292969,0.0405884,0.0338745,0.0274658,-0.0653076,0.00946045,-0.0250244,-0.0314331,0.000915527,0.0250244
85,4,-0.00823975,0.0299072,0.0814819,0.0177002,0.0262451,0.0799561,0.0323486,-0.0436401,-0.0280762,-0.0384521,-0.0100708,0.0531006,0.0317383
86,0,-0.00183105,0.0244141,0.0201416,0.0469971,0.0241089,0.032959,0.00946045,-0.0411987,0.0088501,-0.0128174,-0.0216675,0.0708008,0.0247192
86,1,-0.00915527,0.0289917,0.0146484,0.0259399,0.0454712,0.0366211,0.0231934,-0.0354004,0.0183105,-0.00946045,-0.0180054,0.088501,0.0210571
86,2,-0.0485229,0.0317383,0.0317383,0.0332642,0.0302124,0.0302124,0.020752,-0.0140381,0.00335693,-0.0125122,-0.0299072,0.0613403,0.0247192
86,3,-0.0457764,0.012207,-0.0189209,0.0219727,0.0186157,0.0775146,0.0292969,0.00183105,0.0445557,0.00183105,-0.0186157,0.0100708,0.0231934
86,4,-0.0442505,0.0253296,0.0515747,0.0216675,0.0338745,0.0363159,0.0283813,-0.0134277,0.017395,0.000915527,-0.03479,-0.00518799,0.020752
87,0,-0.0418091,0.0305176,0.0747681,0.0314331,0.0344849,0.0308228,0.00518799,-0.0128174,0.0259399,0.00335693,-0.0256348,-0.0314331,0.102844
87,1,-0.022583,0.0241089,0.0515747,0.015564,0.0311279,0.0268555,0.022583,0.00183105,0.0274658,0.010376,-0.020752,-0.0515747,0.0195312
87,2,0.0524902,0.0332642,0.0427246,0.032959,0.0427246,0.0317383,0.0354004,-0.00335693,0.0189209,0.00823975,-0.0228882,0.00823975,0.00976562
87,3,0.137329,0.0262451,0.0515747,0.0250244,0.0244141,0.0326538,0.0302124,0.00152588,0.0183105,0.0152588,-0.0219727,0.0613403,0.022583
87,4,0.0350952,0.0125122,0.0283813,0.0335693,0.0170898,0.0283813,0.0262451,0.0195312,0.00610352,0.00854492,-0.0222778,0.0683594,0.0183105
88,0,-0.0296021,0.0198364,0.0387573,0.0454712,0.0326538,0.0222778,0.0201416,0.00396729,0.0149536,0.0198364,-0.0509644,-0.0152588,0.0134277
88,1,-0.0549316,0.0238037,0.00762939,0.0314331,0.0341797,0.0317383,0.0256348,0.0234985,0.0161743,0.0183105,-0.0186157,-0.0650024,0.00305176
88,2,-0.0515747,0.0421143,0.00701904,0.0198364,0.0228882,0.0250244,0.0292969,0.0180054,0.0213623,0.0152588,-0.0170898,-0.0469971,0.0238037
88,3,-0.0494385,0.017395,0.0167847,0.0332642,-0.00396729,0.039978,0.0140381,0.0131226,0.022583,0.0286865,0.012207,0.0131226,0.017395
88,4,0.0302124,0.0311279,-0.00183105,0.00610352,0.0189209,0.0311279,0.00854492,0.0195312,0.0262451,-0.0302124,-0.0299072,0.0604248,0.0158691
89,0,0.0473022,0.0265503,0.0259399,0.0296021,0.0457764,0.045166,0.0280762,0.017395,0.0360107,0.0317383,-0.0213623,0.0531006,0.00671387
89,1,0.100098,0.0149536,0.00183105,0.00305176,0.0314331,-0.0234985,0.032959,0.0244141,-0.0491333,0.0262451,-0.0305176,-0.0262451,0.0115967
89,2,0.125122,0.0378418,-0.00244141,0.00823975,0.0234985,-0.00518799,0.0253296,0.0167847,0.0234985,0.0228882,-0.0204468,0.0265503,0.00427246
89,3,0.109558,0,-0.0125122,0.0335693,0.0354004,-0.0366211,0.0219727,0.0384521,0.0524902,0.0283813,-0.0305176,0.032959,0.0259399
89,4,0.0787354,0.0161743,0.00762939,0.00976562,0.0454712,0.0308228,0.0558472,0.0299072,0.010376,0.0247192,-0.0204468,0.012207,0.0366211
90,0,0.0463867,0.0341797,0.0250244,0.0271606,0.0238037,0.0241089,0.0311279,0.0265503,0.00549316,0.0320435,-0.0186157,0.0564575,0.0244141
90,1,0.0296021,0.0164795,0.0158691,0.0183105,0.0256348,0.0292969,0.00366211,0.0357056,0.0296021,0.0259399,0.00335693,0.0463867,0.0152588
90,2,0.0549316,0.0100708,0.0344849,0.0415039,0.03479,0.0311279,0.0320435,0.0259399,0.0259399,0.0247192,-0.000610352,0.0393677,0.0213623
90,3,0.0292969,0.00335693,0.0344849,0.045166,0.0320435,0.0308228,0.03479,0.0445557,0.00549316,0.0430298,-0.0558472,0.0100708,0.0195312
90,4,0.0283813,0.0131226,0.0299072,0.038147,0.0357056,0.0320435,0.0274658,0.0469971,0.032959,0.0335693,-0.0393677,0.0180054,0.0115967
91,0,0.0186157,-0.00244141,0.0491333,0.0326538,0.0259399,0.0344849,0.032959,0.0280762,0.017395,0.0350952,-0.0186157,-0.0411987,-0.00488281
91,1,0.0341797,-0.00823975,0.0228882,0.0204468,0.0247192,0.0335693,0.0286865,0.0439453,0.0250244,0.0430298,-0.027771,-0.0268555,0.0274658
91,2,0.027771,0.0216675,0.0286865,0.00732422,0.03479,0.0396729,0.0189209,0.0616455,0.0167847,0.0326538,-0.0427246,-0.012207,0.0146484
91,3,-0.00549316,0.00915527,0.0216675,0.0280762,0.0238037,0.0570679,0.0256348,0.0479126,0.032959,0.03479,-0.0137329,-0.0231934,0.0177002
91,4,-0.0332642,0.0274658,0.0247192,-0.0363159,0.0378418,0.0320435,0.0494385,0.0442505,0.0268555,0.0509644,-0.0222778,0.0494385,0.0180054
92,0,-0.0784302,0.0216675,0.0234985,0.0259399,0.0415039,0.0195312,0.03479,0.0488281,0.0186157,0.0271606,-0.0140381,0.0335693,0.0177002
92,1,0.0726318,0.0115967,0.0106812,0.0601196,0.0201416,0.0387573,0.0595093,0.0717163,0.0305176,0.0497437,-0.00671387,0.0210571,0.0152588
92,2,-0.0195312,0.0131226,0.0238037,0.0460815,0.0250244,0.0317383,0.0271606,0.0537109,0.0308228,0.0415039,-0.0192261,0.0149536,0.071106
92,3,0.0341797,0.0161743,0.0231934,0.022583,0.0375366,0.0897217,0.0402832,0.071106,0.0259399,0.0601196,-0.0088501,-0.00152588,0.00244141
92,4,0.0750732,-0.0241089,0.0457764,0.020752,0.0491333,0.0405884,0.0357056,0.0469971,0.00396729,0.0292969,0.0149536,0.00701904,0.0128174
93,0,0.0656128,0.00640869,0.0326538,-0.00427246,0.0378418,0.020752,0.0216675,0.124512,0.0305176,0.0372314,-0.0299072,-0.0167847,0.0012207
93,1,0.0436401,0.0408936,0.0137329,0.0262451,0.0314331,0.027771,0.0274658,0.140686,0.0238037,0.0299072,-0.0140381,-0.00549316,0.0180054
93,2,0.0158691,0.00732422,0.00305176,0.0213623,0.0439453,0.0436401,0.0296021,0.138245,0.00183105,0.0418091,-0.0286865,0.0170898,0.0170898
93,3,-0.0247192,0.00488281,0.00213623,0.0222778,0.0338745,0.0653076,0.0418091,0.105591,0.0460815,0.0567627,-0.0167847,0.0186157,0.0131226
93,4,-0.000915527,-0.00366211,0.0177002,0.0274658,0.0390625,0.0430298,0.0323486,0.106812,0.03479,0.0396729,-0.00640869,-0.055542,0.0253296
94,0,0.0396729,0.0213623,0.0411987,0.0115967,0.0222778,0.0582886,0.0323486,0.0976562,-0.0338745,0.015564,-0.0268555,-0.0186157,0.015564
94,1,0.0183105,0.0592041,0.0164795,0.0192261,0.0106812,0.0308228,0.0372314,0.0894165,0.0161743,0.0271606,-0.017395,0.015564,0.0308228
94,2,0.017395,0.0396729,0.0161743,0.0234985,0.0286865,0.0387573,0.00305176,0.0921631,0.0183105,0.0296021,-0.0115967,-0.0134277,0.00305176
94,3,0.0311279,0.0286865,0.0100708,0.0198364,0.038147,0.0363159,0.00976562,0.0808716,0.0189209,0.0320435,0.0109863,-0.00152588,0.0262451
94,4,0.0192261,0.0201416,0.0189209,0.0186157,0.0411987,0.00610352,0.0302124,0.0640869,0.0366211,0.0466919,-0.0146484,-0.00305176,-0.032959
95,0,-0.00396729,0.0158691,0.0216675,0.0198364,0.00946045,0.0341797,0.022583,0.0634766,0.0271606,0.0335693,-0.0119019,0.00946045,0.0167847
95,1,-0.00427246,-0.0311279,0.0305176,0.0265503,0.0350952,0.0283813,0.0482178,0.0473022,0.0125122,0.0344849,-0.0283813,0.00671387,0.0112915
95,2,-0.00152588,0.0012207,0.0390625,0.0296021,0.0308228,-0.0219727,0.0408936,0.0570679,0.0299072,0.0363159,-0.00793457,0.0201416,0.0180054
95,3,-0.010376,0.0088501,0.00854492,0.0198364,0.0372314,0.0375366,0.0610352,0.0527954,0.0170898,-0.0152588,-0.0216675,-0.00183105,-0.0170898
95,4,0.022583,0.017395,0.00854492,0.0311279,0.0198364,0.0274658,0.0143433,0.0460815,0.0198364,0.0341797,-0.0177002,0.0265503,0.0289917
96,0,0.0100708,0.00244141,0.0115967,0.0375366,0.0357056,0.0247192,0.0820923,0.0372314,-0.00610352,-0.0253296,-0.0106812,-0.000915527,0.00610352
96,1,0.0619507,0.00793457,0.0241089,0.00793457,0.0320435,0.0289917,0.0161743,0.0268555,0.0201416,0.0286865,-0.00579834,0.00579834,0.0164795
96,2,0.0204468,0.00915527,0.0164795,0.0366211,0.0198364,0.0183105,0.0372314,0.0271606,0.0152588,0.0897217,-0.0198364,0.0164795,0.0292969
96,3,0.0164795,0.010376,0.0177002,0.0170898,0.0616455,0.0363159,0.0231934,0.020752,0.0262451,0.0479126,-0.0131226,0.0161743,-0.00396729
96,4,0.0088501,0.00671387,0.0222778,0.020752,0.0354004,0.0088501,0.0314331,0.0253296,0.0561523,0.0305176,-0.00823975,0.0445557,0.0158691
97,0,-0.00457764,-0.0305176,0.0378418,0.0210571,0.0112915,0.0393677,0.0289917,0.0180054,0.0231934,0.0262451,-0.0170898,0.0466919,0.0152588
97,1,-0.0170898,0.0219727,-0.0341797,0.0271606,0.0228882,0.0369263,0.0262451,0.010376,0.0164795,0.0326538,-0.0131226,0.0415039,0.0268555
97,2,-0.0131226,-0.0140381,0.022583,0.0357056,0.00823975,0.0274658,0.0549316,0.0109863,0.0219727,0.0354004,-0.0234985,0.0439453,0.0283813
97,3,-0.0134277,-0.0161743,0.0283813,0.012207,-0.0393677,0.0283813,0.0390625,0.0305176,-0.00213623,0.0216675,-0.022583,0.0198364,0.0180054
97,4,-0.0115967,0.0112915,0.0177002,0.0213623,0.0216675,0.0183105,0.0323486,0.0161743,0.0231934,0.0204468,-0.0222778,0.0283813,0.0338745
98,0,0.0418091,0.0128174,0.00152588,0.0210571,0.0192261,0.0384521,0.0366211,0.0128174,0.0195312,0.0430298,-0.0213623,0.015564,0.00427246
98,1,0.0323486,0.00976562,0.0210571,0.0265503,0.0338745,0.0268555,0.0308228,0.00671387,0.0119019,0.0186157,-0.0219727,-0.00549316,0.0213623
98,2,0.00671387,-0.00488281,0.0396729,-0.00610352,0.0363159,0.0210571,0.03479,0.00640869,0.015564,0.0338745,-0.0250244,0.0134277,0.0115967
98,3,0.0302124,0.0088501,0.0497437,0.0195312,0.0305176,0.0158691,0.00213623,0.0106812,0.0234985,-0.0149536,-0.0280762,0.0442505,0.00823975
98,4,0.0845337,0.00915527,0.0244141,0.020752,0.0219727,0.0256348,0.03479,0.000305176,0.0201416,0.0457764,-0.0195312,0.0415039,0.00671387
99,0,0.0234985,0.0119019,0.0088501,0.00976562,0.0143433,-0.0109863,0.0326538,-0.00396729,0.0650024,0.0396729,-0.0088501,0.0613403,0.0241089
99,1,0.027771,0.0106812,0.00549316,0.0216675,0.0198364,0.0198364,0.0341797,-0.0140381,0.0256348,0.0299072,-0.0286865,0.0378418,0.0250244
99,2,0.027771,0.0183105,0.0219727,0.0109863,0.0836182,0.0323486,0.0314331,-0.050354,0.0289917,0.0344849,-0.0360107,0.0558472,0.0219727
99,3,-0.0497437,-0.00335693,0.0219727,0.0106812,0.0204468,0.0308228,0.065918,0.00793457,-0.00183105,0.0286865,-0.0265503,0.0292969,0.00762939
99,4,-0.0674438,0.0177002,0.03479,0.0106812,0.0222778,0.0515747,0.0247192,0.00915527,0.0219727,0.0442505,-0.0286865,0.0292969,0.00427246
100,0,-0.0842285,-0.0588989,0.0369263,0.0109863,0.0289917,0.0314331,0.0296021,0.0695801,0.0323486,0.039978,-0.0366211,0.0201416,0.0149536
100,1,-0.101929,0.0265503,0.0234985,0.0427246,0.0228882,0.0216675,0.0308228,-0.00854492,0.0195312,-0.0149536,-0.0131226,0.0119019,0.0756836
100,2,-0.0930786,0.0100708,0.0357056,-0.0360107,0.0256348,0.0158691,0.0213623,-0.00518799,0.0305176,0.0372314,-0.0256348,0.00427246,0.0183105
100,3,0.0137329,0.032959,0.00823975,0.0228882,0.0350952,0.0213623,0.03479,0.00549316,0.0189209,0.0341797,-0.0228882,0.038147,-0.00701904
100,4,0.0939941,0.0393677,0.000915527,0.0222778,0.00335693,0.0265503,0.0354004,-0.00610352,0.022583,0.0387573,-0.0149536,0.0375366,0.015564
101,0,0.124207,0.0115967,-0.00579834,0.022583,0.0253296,0.0115967,0.0320435,-0.00976562,0.0305176,0.0387573,-0.0198364,-0.0250244,0.0125122
101,1,0.106201,0.0283813,-0.0177002,0.00976562,0.0421143,0.0128174,0.0274658,0.0259399,0.038147,0.032959,-0.0250244,-0.0341797,0.0134277
101,2,0.0961304,0.0134277,-0.0195312,0.0137329,0.0195312,0.0942993,0.0372314,-0.0131226,0.0683594,0.0405884,-0.0238037,0.0338745,-0.0189209
101,3,0.120239,0.0491333,0.00823975,0.0158691,0.0100708,0.0265503,0.0268555,-0.0320435,0.0338745,0.062561,-0.0585938,-0.0186157,0.0238037
101,4,0.100098,0.0250244,0.0119019,0.0112915,0.0308228,0.0177002,0.015564,0.0106812,0.0305176,0.0448608,-0.0238037,-0.0238037,0.0280762
102,0,0.0601196,0.0274658,0.0247192,0.0238037,0.0204468,0.0265503,0.03479,-0.0100708,0.0134277,0.038147,-0.0326538,-0.0402832,0.00488281
102,1,0.0448608,-0.0231934,0.0137329,0.0192261,0.000610352,0.0317383,0.0338745,0.0198364,0.0177002,0.0341797,-0.0363159,-0.00244141,0.0186157
102,2,0.0436401,-0.0137329,-0.00396729,0.0250244,-0.0213623,0.0231934,0.0366211,0.0299072,0.0216675,0.0210571,-0.0292969,0.0210571,0.0308228
102,3,0.00549316,0.0256348,-0.00427246,0.0219727,0.0210571,0.0192261,0.0189209,0.0115967,0.0106812,0.0335693,-0.0524902,0.0415039,0.0012207
102,4,0.0216675,0.0210571,0.00915527,0.0213623,0.0259399,0.0198364,0.0372314,-0.000915527,0.0161743,0.0125122,-0.0445557,0.0296021,0.0170898
103,0,0.00335693,0.0146484,-0.00549316,0.000610352,0.0241089,0.0241089,0.062561,-0.0183105,0.0283813,0.0424194,-0.0228882,0.0189209,0.0149536
103,1,-0.0012207,0.0125122,-0.00396729,0.022583,0.0405884,0.00671387,0.0259399,-0.057373,0.0390625,0.0402832,-0.0271606,0.0131226,0.020752
103,2,-0.0875854,0.0115967,0.0112915,0.0234985,0.00335693,0.0268555,0.0619507,-0.0537109,0.0286865,0.0366211,-0.0540161,0.00915527,0.0234985
103,3,-0.0411987,-0.00335693,0.0112915,0.0244141,0.0183105,0.0119019,0.0256348,-0.0469971,0.0320435,0.0292969,0.000305176,0.00549316,0.0192261
103,4,-0.0476074,0.0183105,0.0228882,0.0128174,0.0213623,0.0274658,0.0253296,-0.045166,0.0747681,0.0366211,-0.0323486,-0.0653076,0.0088501
104,0,-0.0418091,0.0149536,0.0222778,0.00732422,0.0189209,0.0628662,0.0128174,-0.0442505,-0.0408936,0.0537109,-0.0231934,0.0177002,0.0228882
104,1,-0.0213623,0.00976562,0.0424194,0.0250244,0.0177002,0.0222778,0.022583,-0.0436401,0.0152588,0.0357056,-0.0314331,-0.0265503,0.0134277
104,2,-0.0598145,0.0140381,0.0393677,0.027771,0.0292969,0.0201416,0.0201416,-0.0228882,0.032959,0.0280762,-0.0210571,0.00579834,0.00366211
104,3,-0.0714111,0.0137329,0.0314331,0.0473022,0.0262451,0.0234985,-0.0149536,0.00152588,0.0317383,0.0683594,-0.0305176,0.0588989,0.0228882
104,4,-0.015564,0.0128174,0.0192261,0.0268555,0.0186157,-0.0164795,0.0289917,0.0302124,-0.0253296,0.0302124,-0.0286865,0.0476074,0.017395
105,0,0.010376,-0.0332642,0.00915527,0.0286865,0.00732422,0.0164795,0.0238037,0.124817,0.0128174,0.022583,-0.0311279,0.0747681,0.0186157
105,1,0.043335,0.0402832,0.00274658,0.0125122,0.0585938,0.0234985,0.0344849,0.0357056,0.0274658,0.0265503,-0.0231934,0.115662,0.0146484
105,2,0.0958252,0.0534058,-0.00823975,0.0109863,0.012207,0.0170898,0.0146484,0.0195312,0.0250244,0.0234985,-0.0466919,0.0866699,0.0317383
105,3,0.112,0.0231934,-0.00457764,-0.00274658,0.0119019,-0.00244141,0.0341797,-0.0335693,0.0241089,0.0250244,-0.0283813,0.0396729,0.0274658
105,4,0.109558,0.00518799,-0.045166,0.027771,0.0134277,-0.0354004,0.0167847,-0.0717163,-0.0183105,0.0314331,-0.0323486,0.0311279,0.00946045
106,0,0.0689697,0.0131226,0.0109863,0.0115967,0.00946045,0.0210571,0.0216675,-0.0631714,0.0259399,0.0354004,0.0152588,0.0280762,0.00427246
106,1,0.078125,0.00701904,0.0320435,0.0265503,0.0115967,0.0088501,0.0515747,-0.0463867,0.0341797,0.0167847,-0.0253296,0.0177002,0.0234985
106,2,0.098877,0.00183105,0.0390625,0.0265503,0.0131226,0.0106812,0.0204468,-0.0631714,0.038147,0.0421143,-0.0305176,0.0473022,0.0216675
106,3,0.065918,0.0228882,0.027771,0.017395,0.00946045,0.0167847,0.0253296,-0.0213623,0.0262451,0.0271606,0.00274658,0.0482178,0.0167847
106,4,0.0680542,0.00732422,0.0299072,0.0302124,0.00732422,0.0204468,0.0933838,0.00213623,0.0216675,0.0857544,-0.0302124,0.0158691,0.0631714
107,0,0.0256348,0.00793457,0.00915527,0.0228882,0.00549316,0.0222778,0.020752,-0.0204468,0.015564,-0.00671387,-0.0256348,0.00976562,-0.00823975
107,1,-0.0189209,0.00396729,0.0088501,0.0427246,0.0115967,0.0128174,0.043335,-0.00671387,0.0448608,0.0671387,-0.0253296,-0.0219727,0.0314331
107,2,-0.00976562,0.0811768,0.0106812,0.0152588,-0.0292969,0.0204468,0.0234985,0.0106812,0.0335693,0.0238037,-0.0143433,-0.0344849,0.0222778
107,3,0.017395,0.0131226,-0.00488281,0.039978,0.0170898,0.0088501,0.0250244,-0.00244141,0.0210571,0.039978,-0.0192261,-0.0115967,0.00305176
107,4,0.0384521,-0.00793457,-0.010376,0.020752,-0.00366211,0.0250244,0.0259399,0.0494385,0.0418091,0.0338745,-0.055542,-0.0448608,0.0296021
108,0,0.0228882,0.0317383,0.0302124,0.0222778,0.00671387,0.0088501,0.0204468,0.00976562,0.0354004,0.0280762,-0.0311279,0.0280762,0.0216675
108,1,0.0119019,0.0247192,0.020752,0.0195312,0.0149536,0.0210571,0.010376,0.00488281,0.0308228,0.0152588,-0.0363159,-0.0177002,0.0265503
108,2,0.00793457,0.0335693,0.0112915,0.0213623,0.0170898,0.00579834,0.00854492,0.0134277,0.0140381,0.0216675,-0.0308228,-0.00976562,0.0692749
108,3,0.0140381,0.0408936,-0.00701904,0.020752,0.00854492,0.0241089,0.0396729,0.0164795,0.0299072,0.0231934,-0.0201416,-0.00915527,0.017395
108,4,0.0125122,0.0289917,0.00640869,0.0210571,0.0146484,0.00946045,0.0228882,0.065918,0.0268555,0.039978,-0.0286865,-0.00213623,0.027771
109,0,0.0540161,0.0238037,-0.00457764,0.0180054,0.0296021,0.0088501,0.0137329,0.0375366,0.0308228,0.0234985,-0.0344849,-0.020752,0.0296021
109,1,0.0601196,0.017395,0.0106812,0.0128174,-0.00396729,-0.00152588,0.0265503,0.0112915,0.020752,0.0360107,-0.022583,-0.0140381,0.0311279
109,2,0.0485229,0.0222778,0.00610352,0.0198364,0.06073,0.012207,0.00854492,-0.0332642,0.0363159,0.0332642,-0.03479,-0.0161743,0.0231934
109,3,0.050354,0.0210571,0.0158691,0.0152588,0.0375366,0.0256348,0.0183105,0.0109863,0.0341797,0.0357056,-0.0213623,-0.0259399,0.0250244
109,4,0.0436401,-0.0308228,0.0302124,0.00518799,-0.0515747,-0.00152588,0.022583,0.0299072,0.0259399,0.0500488,-0.0296021,-0.000915527,0.00427246
110,0,0.0213623,0.0216675,0.0216675,0.0372314,0.020752,0.00793457,0.0152588,0.0189209,0.0192261,0.0387573,-0.027771,0.0195312,0.0430298
110,1,-0.00274658,0.0167847,0.039978,-0.00366211,0.0100708,0.0131226,-0.0302124,0.0213623,0.00854492,0.0283813,-0.0292969,0.022583,0.0268555
110,2,-0.0289917,0.0219727,0.0314331,0.0128174,0.00518799,0.00244141,0.0271606,0.0195312,0.0854492,0.0326538,-0.0265503,0.0219727,0.0204468
110,3,-0.0552368,0.00732422,0.0323486,0.0228882,0.0164795,0.00762939,0.020752,0.0210571,0.0271606,0.0234985,-0.0592041,0.015564,0.0238037
110,4,-0.0457764,0.0201416,0.017395,0.0283813,0.0299072,-0.012207,0.0350952,0.0360107,0.0366211,0.0332642,-0.0323486,0.0177002,0.0427246
111,0,-0.0192261,0.0286865,0.0143433,0.0241089,-0.00823975,0.00610352,0.0012207,0.0283813,0.0146484,0.0128174,-0.0302124,0.0479126,0.020752
111,1,0.0262451,0.0262451,0.038147,0.0372314,0.0189209,0.00671387,0.0109863,0.0378418,0.0283813,0.0338745,-0.0305176,0.0479126,-0.03479
111,2,0.0488281,0.0198364,0.0390625,0.0192261,0.0137329,0.00488281,0.0320435,0.0482178,0.0354004,0.0378418,-0.0259399,0.0473022,0.0387573
111,3,0.0985718,0.0338745,0.0183105,0.0149536,-0.00335693,0.015564,0.0411987,0.0592041,0.0286865,0.0198364,-0.0473022,0.0439453,0.0234985
111,4,0.0772095,0.0286865,-0.0253296,0.0012207,0.00366211,0.0137329,0.0244141,0.0442505,0.0274658,0.0213623,-0.0286865,0.0335693,0.0259399
112,0,0.00732422,0.0244141,0.0271606,0.0286865,0.0112915,0.0131226,0.0146484,0.0402832,0.017395,0.0222778,-0.0210571,0.0454712,0.0326538
112,1,0.0662231,0.0469971,0.0012207,0.0283813,0.00518799,0.0250244,0.0161743,0.0646973,0.0210571,0.0241089,-0.0448608,0.0653076,0.0158691
112,2,0.0552368,0.0354004,0.0131226,0.0134277,-0.0241089,0.010376,0.0143433,0.0888062,0.0268555,0.012207,-0.0354004,0.0442505,0.03479
112,3,0.0405884,0.0299072,0.00640869,0.0180054,0.0164795,-0.00396729,0.0363159,0.0384521,0.0271606,0.0219727,-0.0228882,0.0350952,0.0134277
112,4,0.0360107,0.0259399,0.0253296,0.0170898,0.00152588,0.00610352,0.0265503,0.0421143,0.0393677,0.0180054,-0.0369263,0.0421143,0.0253296
113,0,0.0411987,0.0210571,0.0344849,0.0131226,0.0210571,0.0198364,-0.0259399,0.0421143,0.0256348,0.0167847,-0.03479,0.0323486,0.0271606
113,1,0.020752,0.0637817,0.0088501,0.00976562,-0.0323486,0.0314331,0.0332642,-0.020752,0.0106812,0.0161743,-0.0286865,0.0372314,0.0152588
113,2,0.0320435,0.0253296,0.0192261,0.00762939,0.00793457,0.0213623,-0.0183105,0.0387573,0.0335693,-0.0222778,-0.0189209,0.0283813,0.0897217
113,3,0.0134277,0.0250244,0.0192261,0.00244141,0.0131226,0.0204468,0.020752,0.0119019,0.0213623,0.0125122,-0.0531006,0.03479,0.0320435
113,4,0.0125122,0.0119019,0.00762939,0.00854492,0.0289917,0.0357056,0.0146484,0.0793457,-0.00183105,0.0231934,-0.0183105,0.0341797,0.0167847
114,0,0.0430298,0.0436401,0.0286865,0.00579834,0.0442505,0.0146484,0.00579834,0.0109863,0.0164795,0.00274658,-0.0274658,0.0390625,0.0250244
114,1,-0.00213623,0.0292969,0.0189209,0.0100708,0.0106812,0.0302124,0.0183105,0.0335693,0.0271606,0.00244141,-0.039978,0.0323486,0.0250244
114,2,0.0195312,0.032959,0.0424194,0.0180054,0.0201416,0.00488281,0.0357056,0.0326538,0.0106812,0.0552368,-0.0320435,0.03479,-0.050354
114,3,0.020752,0.0256348,0.0161743,0.00457764,0.00976562,0.0219727,0.0149536,0.0430298,0.0430298,0.00366211,-0.0314331,0.032959,0.0332642
114,4,-0.0204468,0.0393677,0.0164795,-0.0543213,0.0146484,0.0088501,0.0131226,0.022583,0.0186157,0.00457764,-0.0326538,0.0244141,0.0204468
115,0,0.0262451,0.027771,0.0595093,0.0100708,0.0143433,0.0970459,0.0152588,0.0241089,0.0793457,0.00823975,-0.0274658,0.0976562,0.0231934
115,1,0.0253296,0.0363159,-0.0311279,0.0189209,0.00518799,-0.0436401,0.00823975,0.0341797,0.0311279,0.00915527,-0.0283813,0.0363159,0.0326538
115,2,0.0210571,0.0292969,0.0717163,-0.00610352,0.027771,0.012207,0.0161743,0.0231934,0.0100708,-0.00549316,-0.0302124,0.0497437,0.0646973
115,3,0.0201416,0.0253296,-0.0231934,0.00335693,0.0164795,0.0149536,0.017395,0.0314331,0.0280762,-0.00427246,-0.0360107,0.0448608,0.0408936
115,4,0.0317383,0.0369263,0.0332642,0.0109863,0.00610352,0.0250244,-0.00427246,0.0378418,0.0186157,-0.0216675,-0.0436401,0.0396729,0.0183105
116,0,0.00396729,0.0213623,0.0396729,-0.00152588,0.0222778,0.00152588,0.0308228,0.0305176,0.0479126,0.00427246,-0.0418091,0.0506592,0.00793457
116,1,0.0610352,0.0302124,0.0244141,0.0177002,0.0140381,0.0256348,0.0195312,0.0143433,0.0253296,0.00793457,-0.0311279,0.0286865,0.0198364
116,2,0.03479,0.0741577,0.0354004,0.00640869,-0.0408936,0.0253296,0.00610352,0.0469971,0.0308228,0.000915527,-0.0402832,0.00762939,0.0320435
116,3,0.0149536,0.0228882,0.0271606,0.0125122,0.0216675,0.00854492,0.0164795,0.032959,0.015564,0.0100708,-0.0143433,0.0128174,0.0274658
116,4,0.032959,0.0262451,0.0115967,0.0256348,0.0439453,0.045166,0.0125122,0.0299072,0.0170898,0.00793457,-0.0280762,0.0643921,0.0250244
117,0,0.0396729,0.022583,0.0442505,0.0231934,0.0222778,0.00640869,0.010376,0.03479,0.0595093,-0.00183105,-0.0326538,0.0305176,0.0198364
117,1,0.0302124,0.0366211,0.0302124,0.0338745,0.0167847,0.0363159,0.0241089,0.0308228,0.0149536,-0.0561523,-0.0354004,0.0396729,0.062561
117,2,0.0366211,0.0192261,0.0411987,0.0238037,0.0268555,0.0186157,0.0195312,0.0396729,0.0128174,0.0204468,-0.0286865,0.0537109,0.0222778
117,3,0.0350952,0.0311279,0.0320435,0.0164795,0.0115967,0.0216675,0.00183105,0.0283813,0.0244141,0.015564,-0.0305176,0.062561,0.0338745
117,4,0.0717163,0.0192261,0.0335693,0.012207,0.0234985,0.00762939,0.0170898,0.0427246,0.0186157,0.00762939,-0.0299072,0.067749,0.0299072
118,0,-0.0189209,0.0317383,0.0442505,0.0198364,0.0137329,0.00671387,0.0119019,0.0439453,0.0213623,0.0109863,-0.0164795,0.0576782,0.0320435
118,1,-0.06073,0.00213623,0.0350952,0.0241089,0.0427246,0.00823975,0.015564,0.0396729,0.00671387,0.00671387,-0.0741577,0.0418091,0.017395
118,2,-0.0601196,0.0170898,0.043335,0.0708008,0.0134277,0.00823975,0.0512695,0.0256348,0.0259399,0.0448608,-0.0161743,0.00335693,0.00823975
118,3,-0.0613403,0.0372314,0.0476074,0.0253296,0.0283813,0.00854492,0.00946045,0.0286865,0.0189209,0.00518799,-0.0222778,-0.0149536,-0.00854492
118,4,-0.0784302,0.0262451,0.0512695,0.0210571,0.0332642,0.00854492,0.0106812,0.0299072,0.057373,0.00518799,-0.0238037,0.0149536,0.0247192
119,0,-0.0448608,0.0372314,0.038147,0.0164795,0.0289917,0.0210571,0.0769043,0.0411987,0.0280762,0.0390625,-0.0088501,0.0204468,0.0482178
119,1,0.0567627,0.0402832,0.0378418,0.0180054,0.0128174,0.0149536,0.0204468,0.0363159,0.032959,0.00518799,-0.0189209,0.0280762,0.0537109
119,2,0.0964355,0.0418091,0.039978,0.0241089,0.0238037,0.0164795,0.0228882,0.0323486,0.0164795,0.0253296,-0.0265503,0.00457764,0.0259399
119,3,0.0796509,0.0323486,-0.0421143,0.0149536,0.0238037,0.0131226,0.00396729,0.0219727,0.0344849,0.0415039,-0.0274658,0.00335693,-0.0219727
119,4,0.0918579,0.0390625,-0.0341797,0.0311279,0.0180054,0.0741577,0.0238037,0.0338745,0.0405884,0.0488281,-0.0289917,0.0177002,0.0302124
120,0,0.115662,0.0186157,0.00488281,0.0167847,0.0189209,0.0100708,0.0253296,0.0338745,0.0247192,0.0512695,-0.0180054,0.0268555,0.0119019
120,1,0.0946045,0.0180054,-0.0146484,0.0326538,0.0335693,0.027771,0.0213623,0.0228882,0.0189209,0.0613403,-0.0250244,0.032959,0.0366211
120,2,0.171204,0.0338745,-0.0012207,0.0222778,0.015564,0.0250244,0.0222778,0.0192261,0.0302124,0.0686646,-0.0256348,0.0128174,0.0109863
120,3,0.0857544,0.0109863,-0.0131226,0.0308228,0.0738525,0.0167847,0.0158691,-0.0177002,0.0305176,0.0784302,-0.0231934,0.0308228,0.0280762
120,4,0.00854492,0.0198364,0.0228882,0.0579834,0.0231934,0.0216675,-0.0360107,0.0170898,0.0250244,0.113525,-0.0250244,0.0320435,0.0354004
121,0,0.0662231,0.0262451,0.0292969,0.0204468,0.0222778,0.0131226,0.0195312,0.0286865,0.0234985,0.0668335,-0.0244141,0.0424194,0.0427246
121,1,0.0393677,0.0112915,0.0170898,0.0250244,0.03479,0.012207,0.0201416,0.022583,-0.0238037,0.0796509,-0.0238037,0.0720215,0.0161743
121,2,0.0637817,0.0195312,0.0231934,0.0247192,0.0283813,0.0234985,0.0183105,0.0332642,0.0320435,0.0296021,-0.0149536,0.0454712,0.0643921
121,3,0.0506592,0.0231934,0.0305176,0.0137329,0.0283813,0.0219727,0.0137329,0.0268555,0.0323486,0.0231934,0.00823975,0.0320435,0.0323486
121,4,0.0280762,0.0115967,0.0384521,0.0292969,0.0286865,0.012207,0.00823975,0.0201416,0.0125122,0.0543213,-0.0253296,-0.0140381,0.0479126
122,0,0.0128174,0.0170898,0.0305176,-0.0189209,0.0354004,0.00335693,0.0186157,0.022583,0.0314331,0.0491333,-0.03479,0.0396729,0.0317383
122,1,0.0286865,0.0375366,0.0317383,0.0222778,0.0189209,0.0326538,0.00396729,0.0302124,0.0216675,0.0369263,-0.0543213,0.0146484,0.0592041
122,2,-0.00701904,0.0427246,0.0491333,-0.0326538,0.0198364,0.0088501,-0.0216675,0.0146484,0.0170898,0.0521851,-0.0286865,0.0524902,0.038147
122,3,0.00274658,0.0234985,0.0360107,0.0244141,0.0250244,0.0204468,0.0180054,0.0302124,0.0271606,0.0473022,-0.0238037,0.0424194,0.0204468
122,4,0.0192261,0.0323486,0.102539,0.0186157,0.020752,0.00305176,0.0195312,0.027771,0.0201416,0.0457764,-0.0137329,0.0332642,0.0372314
123,0,0.0128174,0.0354004,0.0393677,0.0244141,0.0350952,0.0088501,0.0140381,0.0244141,0.0778198,0.0256348,-0.0271606,0.0341797,0.038147
123,1,-0.00488281,0.0344849,0.017395,0.0344849,0.027771,0.0186157,0.043335,0.0357056,0.0311279,0.0222778,-0.0271606,0.0213623,0.0521851
123,2,0.0234985,0.0106812,0.045166,0.0286865,0.0296021,0.0308228,0.0131226,0.0357056,0.0274658,0.0164795,-0.0216675,0.0265503,0.0357056
123,3,0.0286865,0.0393677,0.00854492,0.022583,0.00946045,0.0192261,0.0119019,-0.0012207,0.0265503,0.0234985,-0.00457764,0.0418091,0.0344849
123,4,0.0286865,0.0311279,-0.0143433,0.0170898,0.0262451,0.015564,-0.00793457,0.0143433,0.00396729,0.0119019,-0.0302124,0.0421143,0.00762939
124,0,0.0259399,0.0350952,0.017395,0.0323486,0.0158691,-0.00793457,0.0131226,0.020752,-0.00701904,0.0109863,-0.038147,0.0170898,0.0469971
124,1,-0.000915527,0.00762939,0.0369263,0.0286865,0.0427246,0.0180054,0.015564,0.0183105,0.00244141,0.0106812,-0.0332642,0.00518799,0.0253296
124,2,-0.0238037,0.0918579,0.0393677,0.032959,0.0289917,0.0268555,0.0213623,-0.0408936,0.0109863,0.00305176,-0.0314331,0.00823975,0.0338745
124,3,-0.0543213,0.0338745,0.0485229,0.0537109,0.0134277,0.0167847,0.010376,0.0256348,0.03479,0.0195312,-0.0314331,-0.0119019,0.0396729
124,4,-0.00274658,0.0216675,0.0408936,0.0402832,0.0350952,0.0115967,0.0131226,0.0820923,0.0170898,0.0161743,-0.0576782,0.0280762,0.0323486
125,0,0.0119019,0.00366211,0.0213623,0.0274658,0.0234985,0.0256348,0.0189209,0.0146484,0.0247192,0.00579834,-0.0219727,0.0479126,-0.0146484
125,1,0.0418091,0.0128174,0.0314331,0.0338745,0.0848389,0.0375366,0.020752,0.0570679,0.0344849,0.00823975,-0.0369263,0.0228882,0.0305176
125,2,0.0442505,0.0415039,0.0341797,0.0482178,0.0497437,0.0100708,0.0231934,0.0170898,0.0167847,0.0088501,-0.0317383,0.0891113,0.0296021
125,3,0.0540161,0.0189209,0.0598145,0.0390625,0.0411987,0.0332642,0.0170898,0.00488281,0.0152588,0.00579834,-0.0323486,0.0357056,0.00610352
125,4,0.0598145,0.0646973,0.0204468,0.0378418,0.0112915,0.0320435,0.00732422,0.017395,0.00366211,0.00793457,-0.0335693,0.0274658,0.0994873
126,0,0.0292969,0.0149536,0.0302124,0.0332642,0.0549316,0.0262451,0.0286865,0.0299072,0.00335693,0.00488281,-0.017395,0.00976562,0.0326538
126,1,0.0183105,0.0088501,0.0558472,0.0466919,0.0378418,0.0152588,0.00793457,0.0332642,0.0219727,-0.000915527,-0.0344849,0.0012207,0.0125122
126,2,0.0164795,0.0231934,0.0497437,0.022583,0.017395,0.022583,0.0186157,0.06073,0.00183105,0.00762939,-0.0323486,0.0149536,0.0369263
126,3,0.000610352,0.0308228,0.0314331,0.0109863,0.0378418,0.0360107,0.0268555,0.0439453,0.0201416,0.00732422,-0.0247192,0.0259399,-0.0186157
126,4,0.0280762,0.0308228,0.0128174,0.0411987,0.0296021,-0.0311279,0.0198364,0.0219727,0.0643921,0.0189209,-0.0305176,0.0427246,0.0259399
127,0,0.0180054,0.0427246,0.0323486,0.0183105,0.0408936,0.0610352,0.0228882,-0.0119019,0.0601196,-0.0088501,-0.0100708,0.0088501,0.0289917
127,1,-0.0131226,0.0210571,0.0134277,0.0469971,0.0250244,0.0222778,0.0323486,0.0128174,0.0112915,0.0228882,-0.0360107,-0.00946045,0.0256348
127,2,0.00457764,0.0445557,0.0479126,0.0250244,0.0222778,0.0463867,0.0354004,0.0256348,0.032959,0.00396729,-0.0213623,0.0140381,0.0360107
127,3,-0.0238037,0.03479,0.015564,-0.00183105,0.0415039,0.03479,0.0460815,0.0143433,0.00976562,0.0250244,-0.00244141,0.0311279,0.0393677
127,4,-0.00518799,0.0762939,0.0320435,0.0323486,0.0494385,0.0112915,0.03479,0.0613403,0.0238037,-0.00946045,-0.0274658,0.0253296,0.0268555
128,0,0.0170898,0.020752,0.0445557,0.0454712,0.0354004,0.0552368,0.0271606,0.0219727,0.0012207,-0.00579834,-0.0238037,0.0244141,0.0427246
128,1,0.0250244,0.00518799,0.032959,0.0244141,0.0115967,0.0262451,0.0265503,0.0482178,0.0146484,0.020752,-0.0320435,0.0109863,0.022583
128,2,0.015564,0.0653076,0.0213623,0.0219727,0.0088501,0.022583,0.0326538,-0.0250244,0.0112915,0.0283813,-0.0274658,0,0.0186157
128,3,0.0143433,0.0384521,0.0427246,0.0289917,0.0314331,0.0436401,0.00701904,0.0170898,0.00152588,0.00854492,-0.0247192,0.015564,0.020752
128,4,0.0445557,0.0167847,0.0302124,-0.0311279,0.0106812,0.0289917,0.0189209,-0.00579834,0.0119019,0.00488281,-0.00488281,0.0296021,0.0259399
129,0,0.045166,0.0241089,0.0506592,0.0344849,0.0177002,0.0210571,0.00915527,0.0125122,0.020752,-0.0204468,-0.0415039,0.055542,0.0524902
129,1,0.0323486,0.0100708,0.0576782,0.0222778,0.0219727,-0.0372314,0.020752,0.0201416,0.0308228,0.0192261,-0.017395,0.124207,0.0384521
129,2,0.00823975,0.0216675,0.017395,0.027771,0.0186157,0.0354004,0.0201416,-0.010376,0.0161743,0.00366211,0.0283813,0.0488281,0.0308228
129,3,0.00488281,0.00610352,0.0192261,0.0585938,0.027771,0.0323486,0.0280762,0.00823975,0.000610352,-0.0180054,-0.0131226,0.0411987,0.0228882
129,4,0.00488281,0.0231934,0.0280762,0.0476074,0.0241089,0.010376,0.0268555,0.0158691,-0.00671387,0.0186157,-0.0134277,0.00640869,0.0247192
130,0,0.0170898,0.0262451,0.0115967,0.0253296,0.0259399,0.0241089,0.0299072,0.0216675,-0.00701904,-0.0143433,-0.00518799,0.0167847,0.0384521
130,1,0.0167847,0.0378418,0.022583,0.032959,0.0134277,0.0299072,0.0344849,0.0332642,0.00274658,0.0137329,-0.0201416,-0.0012207,0.0238037
130,2,0.00305176,0.00793457,0.0271606,0.0238037,0.0387573,0.0115967,-0.00823975,0.0256348,0.0119019,0.0494385,-0.0192261,0.0234985,0.0274658
130,3,-0.101624,0.0408936,0.0256348,0.0531006,0.0418091,0.0338745,0.0296021,0.0119019,0.0161743,0.00183105,-0.0128174,0.0167847,0.0241089
130,4,-0.0424194,0.0286865,0.0378418,0.0280762,0.0286865,0.0393677,0.0393677,0.0244141,0.0152588,-0.012207,-0.027771,-0.00335693,0.0201416
131,0,-0.0253296,0.0317383,0.0457764,0.045166,0.0274658,0.0183105,0.0274658,0.00457764,-0.00518799,0.00671387,-0.0180054,-0.0140381,0.0292969
131,1,0.00518799,0.0292969,0.0265503,0.0195312,0.027771,0.0366211,0.0408936,0.0247192,0.0192261,0.00915527,-0.00854492,-0.0552368,0.0271606
131,2,0.000610352,-0.00427246,0.0177002,0.038147,0.0341797,0.0384521,0.0241089,0.0177002,0.0302124,0.0012207,-0.0213623,-0.0268555,0.0436401
131,3,0.0088501,0.0164795,0.0161743,0.050354,0.0393677,0.0296021,0.0283813,0.0241089,0.0405884,0.0115967,-0.0100708,0.0823975,0.0228882
131,4,0.00976562,0.0253296,0.0158691,0.0622559,0.0283813,0.0201416,0.038147,0.0518799,-0.0177002,-0.0012207,-0.0222778,-0.0088501,0.0375366
132,0,0.0115967,0.0152588,0.0317383,0.0393677,0.0213623,0.0119019,0.0204468,0.0244141,0.0183105,0.015564,-0.0149536,0.0250244,0.0201416
132,1,0.0167847,0.0274658,0.000610352,0.0378418,0.000610352,-0.00823975,0.0317383,0.0469971,0.0140381,0.00915527,-0.032959,0.0149536,0.0280762
132,2,0.00946045,-0.0268555,0.0289917,0.0387573,-0.00396729,0.0390625,0.0292969,0.0201416,0.00305176,0.0100708,-0.0201416,0.0375366,0.032959
132,3,0.067749,0.0280762,0.0332642,0.0323486,0.0305176,0.0256348,0.0286865,0.0222778,0.0161743,0.0177002,-0.0152588,0.0234985,0.0497437
132,4,0.0872803,-0.00579834,0.0283813,-0.0216675,0.0280762,0.0228882,0.0256348,0.0265503,0.0088501,0.0115967,-0.0146484,0.00793457,0.0259399
133,0,0.120544,0.0228882,0.0323486,0.0558472,0.022583,0.0302124,0.0689697,0.0198364,0.010376,0.0149536,-0.0265503,-0.0088501,0.0204468
133,1,0.11261,0.0213623,0.0201416,-0.00396729,0.0234985,0.027771,0.0198364,0.0372314,0.012207,0.00946045,-0.0109863,-0.0161743,0.0430298
133,2,0.057373,0.0405884,0.0268555,0.0430298,0.027771,0.0216675,0.0268555,0.00579834,0.0128174,0.00396729,-0.0137329,-0.0317383,0.0167847
133,3,-0.0137329,0.0216675,0.0292969,0.0256348,0.0338745,0.0308228,0.072937,0.0186157,0.0109863,0.0137329,-0.00213623,-0.0128174,0.0323486
133,4,0.03479,0.0326538,0.027771,0.0439453,0.067749,0.0241089,0.027771,0.0231934,0.00335693,0.00488281,-0.0177002,0.0158691,0.0363159
134,0,0.0335693,0.00701904,0.0167847,0.0311279,0.0463867,0.0283813,0.0164795,0.0332642,0.0241089,0.00976562,-0.0256348,0.0283813,0.0366211
134,1,0.0445557,0.0183105,0.0128174,0.0375366,0.0244141,0.015564,0.0161743,0.0158691,0.0228882,-0.00610352,-0.0256348,0.010376,0.0305176
134,2,0.0680542,0.0302124,0.012207,-0.0012207,0.0192261,0.00671387,0.0518799,0.0274658,0.015564,0.000610352,0.0326538,0.00762939,0.012207
134,3,0.0393677,0.027771,0.0180054,0.0357056,0.00396729,0.0241089,0.03479,0.0192261,0,-0.0195312,-0.00610352,0.0308228,0.067749
134,4,0.00671387,0.015564,0.0259399,0.0460815,0.0311279,0.0268555,0.0390625,0.0250244,0.0192261,-0.022583,-0.0189209,0.00427246,0.0192261
135,0,0.0384521,0.0265503,0.015564,0.0326538,0.020752,-0.00579834,0.0253296,0.0088501,-0.0372314,0.0100708,-0.0241089,0.0106812,0.0228882
135,1,0.00183105,0.045166,0.0256348,0.032959,0.0271606,0.0317383,0.0253296,0.0100708,0.0152588,0.000305176,-0.0119019,0.0238037,0.0143433
135,2,0.00244141,-0.0131226,0.0152588,0.0375366,0.0289917,0.0216675,0.0494385,0.0143433,0.012207,0.000915527,-0.00793457,0.00244141,0.0241089
135,3,0.0100708,0.045166,-0.0164795,0.0396729,0.0247192,0.0463867,0.017395,0.0143433,0.0088501,0.0262451,-0.0219727,-0.0143433,0.0292969
135,4,-0.00549316,0.0177002,0.00915527,0.0253296,0.0585938,0.0283813,0.0286865,0.0283813,-0.00213623,0.0137329,-0.00579834,0.0167847,0.027771
136,0,-0.00823975,0.0247192,0.00488281,0.0384521,0.0271606,0.0314331,0.0268555,0.0189209,0.00823975,0.00366211,-0.015564,-0.00213623,0.017395
136,1,0.00518799,0.0274658,0.0219727,0.022583,0.0210571,0.0213623,0.017395,0.0088501,0.022583,0.0256348,0.0177002,0.0314331,0.0195312
136,2,-0.00427246,-0.00244141,0.00549316,0.027771,0.0497437,0.00183105,0.0350952,0.0512695,0.00183105,0.00793457,-0.0363159,0.027771,0.0262451
136,3,-0.0216675,0.00915527,0.015564,0.0384521,0.0134277,0.0256348,0.0241089,-0.0338745,0.00976562,-0.00427246,-0.0265503,0.0369263,0.0292969
136,4,-0.00427246,0.0137329,0.0137329,0.0421143,0.0213623,0.0393677,0.0299072,0.0134277,0.0158691,0.0341797,-0.0189209,0.0335693,0.032959
137,0,-0.0369263,0.0247192,0.0259399,0.0274658,0.0195312,0.032959,-0.00579834,0.0137329,0.0222778,-0.0479126,-0.00915527,0.0131226,-0.0387573
137,1,-0.0396729,0.0161743,0.0338745,0.0332642,0.015564,0.0357056,-0.015564,0.0189209,0.0088501,0.0131226,-0.0189209,0.0158691,0.010376
137,2,-0.027771,0.0186157,0.0292969,-0.0170898,0.0341797,0.0244141,-0.0149536,0.0268555,0.0360107,0.0299072,-0.0259399,0.0308228,0.0289917
137,3,-0.0454712,0.0106812,0.0366211,0.00488281,0.0360107,0.0262451,0.0244141,0.0439453,0.00671387,0.0161743,-0.0418091,-0.0170898,0.0134277
137,4,0.0131226,0.0335693,0.0311279,0.0177002,0.0421143,0.0366211,0.0314331,0.0427246,0.010376,0.0424194,-0.0152588,0.00366211,0.015564
138,0,0.0567627,0.0231934,0.0247192,0.0210571,0.0854492,0.0521851,0.0177002,-0.0198364,0.0326538,0.00579834,-0.0387573,-0.00427246,0.0183105
138,1,0.0650024,0.0244141,0.0408936,0.0253296,0.0393677,0.0393677,0.0189209,0.0256348,-0.0289917,0.0262451,-0.015564,0.0671387,0.032959
138,2,0.0860596,0.0527954,0.0366211,0.0100708,0.0308228,0.0274658,0.0222778,0.0234985,0.00915527,0.038147,-0.0125122,-0.0198364,0.0234985
138,3,0.0961304,0.0326538,0.0390625,0.020752,0.0335693,0.0283813,0.022583,0.027771,0.0143433,0.0338745,-0.0234985,0.0140381,0.0170898
138,4,0.103149,0.0210571,0.0613403,0.0296021,0.0320435,0.0363159,0.0247192,0.0299072,0.0216675,0.00457764,-0.015564,0.00854492,0.038147
139,0,0.0183105,0.0186157,0.0360107,0.0695801,0.0259399,0.0299072,0.0241089,0.0228882,0.00823975,0.0268555,-0.00915527,0.0219727,0.038147
139,1,0.0201416,0.0509644,0.032959,0.0268555,0.0280762,0.0222778,0.0302124,0.0286865,0.0219727,0.0317383,-0.00488281,0.00366211,0.00457764
139,2,-0.0112915,0.0131226,0.00518799,0.0680542,0.0213623,0.0216675,0.0552368,0.0402832,0.0228882,-0.0308228,-0.0457764,0.0112915,-0.00335693
139,3,0.0289917,-0.0112915,0.00183105,0.0305176,0.0088501,0.0289917,0.0222778,0.0595093,0.0311279,0.0256348,-0.0201416,0.0167847,0.0332642
139,4,0.0415039,-0.0418091,-0.0216675,0.0189209,0.0286865,0.0320435,0.0357056,0.027771,0.00183105,0.0125122,-0.010376,0.0192261,0.00335693
140,0,0.0259399,0.0720215,-0.000305176,0.0170898,0.0512695,0.00701904,0.0317383,0.0430298,0.0177002,0.0265503,-0.00701904,0.00549316,0.00457764
140,1,0.0274658,0.0115967,0.0247192,0.0308228,0.0759888,0.0299072,0.0286865,0.0521851,0.0115967,0.00396729,-0.0204468,0.00427246,-0.00946045
140,2,0.0369263,0.0152588,0.0131226,0.0686646,0.038147,0.0326538,0.0357056,0.0402832,0.0250244,0.0219727,-0.00488281,0.045166,0.0109863
140,3,0.0244141,0.00518799,0.0616455,0.0231934,0.0283813,0.0216675,0.0280762,0.0326538,0.0250244,0.0149536,-0.0204468,0.0384521,-0.0338745
140,4,0.00793457,0.0238037,0.0112915,0.0189209,0.0274658,0.0238037,0.0262451,0.0592041,0.0228882,0.0195312,-0.045166,0.0317383,0.0161743
141,0,0.00152588,0.0128174,0.0238037,0.0161743,0.0518799,0.0360107,0.0357056,0.0619507,0.0473022,0.0231934,-0.0204468,0.0756836,0.0231934
141,1,0.0286865,0.017395,0.0259399,0.00396729,0.0158691,0.0198364,0.00366211,0.0350952,0.022583,0.0149536,-0.0271606,0.0201416,0.0106812
141,2,0.0128174,0.017395,0.0164795,0.00488281,0.0314331,0.0469971,0.0726318,0.0323486,0.0131226,0.0149536,-0.0137329,-0.00396729,0.0250244
141,3,0.0161743,0.0186157,0.00457764,0.000915527,0.0219727,0.0292969,0.0323486,0.0357056,0.0247192,-0.0521851,-0.0350952,0.00671387,0.00946045
141,4,-0.0473022,0.00671387,0.010376,-0.0421143,0.0274658,0.0222778,0.0088501,0.0256348,0.00823975,0.0506592,0.0112915,-0.00640869,0.0256348
142,0,0.0125122,0.0109863,0.0283813,-0.0152588,0.0189209,0.03479,0.050354,0.039978,0.022583,0.00549316,-0.0192261,0.0149536,-0.00701904
142,1,0.00244141,0.0183105,0.0201416,0.00366211,0.0219727,0.0219727,0.0485229,0.0665283,0.0180054,0.00152588,-0.00427246,0.012207,-0.00244141
142,2,-0.0125122,0.0161743,0.0238037,-0.0201416,0.0131226,0.0332642,0.0314331,0.0250244,0.0387573,0.0170898,-0.0195312,0.0112915,0.00762939
142,3,-0.0146484,0.00946045,0.0375366,-0.00640869,0.032959,0.00244141,0.0421143,0.0259399,0.00915527,0.00244141,-0.0131226,0.020752,0.0286865
142,4,-0.0219727,0.000305176,-0.0411987,-0.0119019,0.0415039,0.0720215,0.0268555,0.0506592,0.0183105,0.0128174,-0.0286865,0.00640869,0.0219727
143,0,-0.00518799,0.00305176,-0.00640869,0.00793457,0.0231934,0.0265503,0.0204468,0.03479,0.020752,0.0204468,-0.0219727,0.022583,0.0195312
143,1,0.039978,0.015564,-0.00946045,0.0265503,0.00549316,0.039978,0.0396729,0.0296021,0.0378418,0.0161743,-0.0131226,0.0299072,0.0192261
143,2,0.0195312,0.0109863,0.0213623,0.00549316,0.00427246,0.0305176,0.0427246,0.0753784,0.0332642,0.0210571,-0.0231934,0.0283813,0.00488281
143,3,-0.012207,0.0192261,0.0213623,0.0100708,0.0271606,0.0317383,0.00854492,0.0247192,0.0247192,0.0189209,-0.00579834,0.0149536,0.0259399
143,4,-0.0537109,0.03479,0.0537109,-0.00335693,0.0302124,0.0427246,0.0198364,0.0494385,0.0231934,0.0198364,-0.0161743,0.0326538,0.0106812
144,0,-0.0601196,0.0680542,0.0396729,0.00366211,0.0189209,0.0396729,0.0344849,0.0561523,0.0292969,0.0177002,-0.0244141,0.0289917,0.0143433
144,1,-0.0442505,0.0109863,0.0439453,0.0366211,0.0265503,0.0177002,0.0311279,0.00762939,0.0314331,0.027771,-0.020752,0.0299072,0.0134277
144,2,-0.010376,-0.00457764,0.0268555,0.00427246,0.0115967,0.0448608,0.0274658,0.0262451,0.0204468,0.0228882,-0.0204468,0.0192261,0.015564
144,3,-0.0204468,0.00518799,-0.00366211,0.00549316,0.0512695,0.0369263,0.0915527,0.0170898,0.0198364,0.0350952,-0.0228882,0.0253296,0.00946045
144,4,-0.010376,-0.0164795,0.0515747,0.0109863,0.0244141,0.039978,0.027771,0.038147,0.0222778,0.0363159,-0.0198364,0.0134277,-0.0170898
145,0,0.050354,-0.0100708,-0.00762939,0.00549316,0.0201416,0.0363159,0.0311279,0.0195312,0.0262451,0.0430298,-0.0299072,0.00488281,0.0189209
145,1,0.0344849,-0.0109863,0.0323486,0.00335693,0.0112915,0.0384521,0.0311279,0.0292969,0.0167847,0.0286865,-0.0286865,-0.00244141,-0.00305176
145,2,0.0466919,0.00823975,0.0167847,0.000610352,0.0326538,0.027771,0.0152588,0.0436401,0.0137329,0.050354,-0.027771,0.0311279,0.0143433
145,3,0.0869751,0.0369263,0.0335693,0.0158691,0.0180054,0.0561523,0.0869751,0.0283813,0.0314331,0.0335693,-0.0234985,0.0234985,0.0302124
145,4,0.0961304,0.0424194,0.0149536,0.022583,0.0436401,0.0384521,0.0457764,0.0250244,0.0180054,0.0405884,-0.00640869,-0.00976562,0.0616455
146,0,0.0878906,0.0228882,0.0241089,0.0131226,0.0357056,0.0350952,0.0540161,0.0299072,0.0210571,0.0311279,-0.0314331,-0.00152588,-0.000305176
146,1,0.0878906,0.0280762,0.017395,0.00396729,0.0201416,0.0561523,0.0283813,0.0387573,0.0616455,0.0469971,-0.0283813,-0.0259399,0.0137329
146,2,0.0823975,0.0128174,0.00854492,0.0106812,0.0250244,0.0238037,0.0305176,0.0341797,0.0396729,0.0247192,0.0161743,-0.0402832,0.0161743
146,3,0.06073,-0.0012207,-0.000610352,0.00427246,0.0302124,0.0317383,0.0390625,0.0311279,0.0402832,0.0198364,-0.0198364,-0.0274658,0.0100708
146,4,0.0332642,0.0274658,-0.0354004,0.017395,0.0231934,0.0378418,0.0244141,0.0320435,0.0314331,0.0149536,0.0186157,-0.00579834,0.0112915
147,0,0.0543213,0.0204468,-0.0219727,0.0143433,0.0253296,0.0341797,0.017395,0.0216675,0.0396729,0.0231934,-0.0268555,0.0497437,0.0299072
147,1,0.0189209,0.0210571,-0.0366211,0.0125122,0.0201416,0.0753784,0.0158691,0.0170898,0.0299072,0.012207,-0.0250244,0.0170898,0.00396729
147,2,0.0265503,0.0213623,-0.00427246,0.00854492,0.0164795,0.0415039,0.03479,0.0305176,0.0265503,0.0308228,-0.0402832,0.0195312,0.0088501
147,3,-0.0415039,-0.0012207,-0.0140381,0.0119019,0.0210571,0.0350952,0.0286865,0.017395,0.0274658,0.0180054,0.0012207,0.0335693,0.0158691
147,4,-0.0747681,0.0253296,-0.0402832,0.0167847,0.00946045,0,0.0369263,0.00946045,0.0634766,0.03479,-0.00915527,-0.0311279,0.017395
148,0,-0.0695801,0.0360107,0.000610352,0.00732422,0.0241089,0.0366211,0.0384521,0.0405884,0.0234985,0.0262451,-0.0741577,0.0228882,0.00946045
148,1,-0.0537109,-0.00549316,0.0219727,0.010376,-0.00396729,0.0292969,0.0201416,0.0378418,0.0302124,0.0271606,-0.0216675,0.0222778,0.00213623
148,2,-0.0296021,0.022583,0.0189209,0.0125122,0.0460815,0.0253296,0.0170898,0.0323486,0.0274658,0.0369263,-0.0534058,0.0286865,0.0241089
148,3,0.0366211,0.00366211,0.00488281,-0.000610352,0.0088501,0.0170898,0.0210571,0.0195312,0.022583,0.0497437,-0.0152588,0.0219727,0.0106812
148,4,0.117493,0.000610352,0.00488281,0.022583,0.00518799,0.0152588,0.0213623,0.0436401,0.0448608,0.00823975,-0.0241089,0.0161743,0.010376
149,0,0.123596,0.00579834,0.0653076,0.0241089,0.0265503,0.0491333,0.0280762,0.0357056,0.0296021,0.0326538,-0.0283813,0.0161743,0.0180054
149,1,0.0958252,0.0164795,0.0143433,-0.0161743,0.0216675,0.0210571,0.0445557,0.0323486,0.0305176,0.03479,-0.0250244,0.0167847,0
149,2,0.0769043,0.0619507,0.00366211,0.0128174,-0.0164795,0.0247192,0.0296021,0.00488281,0.0338745,0.0427246,-0.0274658,0.0109863,0.0195312
149,3,0.0872803,0.00854492,0.0259399,0.0128174,0.0357056,0.0576782,0.0280762,0.0170898,0.0796509,0.0253296,-0.0213623,0.0540161,0.0100708
149,4,0.03479,0.00244141,0.0112915,0.0106812,0.0332642,0.00854492,0.00549316,0.0350952,0.0494385,0.0366211,-0.0354004,0.0305176,0.0131226
150,0,0.0271606,-0.00183105,-0.0479126,0.0152588,0.015564,0.0289917,0.0253296,0.0427246,0.0393677,0.0170898,-0.0204468,0.0158691,0.00488281
150,1,0.0335693,0.0357056,-0.043335,0.00976562,0.0228882,-0.0439453,0.0378418,0.0286865,0.057373,0.0366211,-0.022583,0.0518799,0.0195312
150,2,0.03479,0.0231934,0.017395,0.00335693,0.012207,0.0259399,0.0323486,0.0323486,0.0338745,0.0198364,-0.0189209,0.0466919,0.0210571
150,3,0.0384521,0.0140381,0.000305176,0.0134277,0.0146484,0.012207,0.0289917,0.0808716,0.0436401,0.00427246,-0.0515747,0.0430298,0.050354
150,4,0.00488281,0.0262451,0.00366211,0.0164795,0.00579834,0.0317383,0.0234985,0.0372314,0.0582886,0.0253296,-0.0256348,0.032959,0.010376
151,0,-0.0115967,0.022583,0.00183105,0.0360107,0.0180054,0.0192261,0.0326538,0.0167847,0.0164795,0.0317383,-0.0253296,0.0445557,-0.00488281
151,1,0.0119019,0.0271606,0,0.015564,0.0161743,0.0274658,0.015564,0.032959,0.0308228,0.00366211,-0.0247192,0.0457764,0.0314331
151,2,0.00488281,0.0161743,0.0314331,0.0265503,0.0216675,0.0405884,0.0323486,0.032959,0.000305176,0.0247192,-0.0292969,0.0570679,0.0289917
151,3,0.0259399,0.0189209,0.00244141,0.0198364,0.0259399,0.0228882,0.00518799,0.0192261,0.0387573,0.0198364,-0.0271606,0.043335,0.0109863
151,4,-0.0350952,0.00915527,0.0119019,0.0793457,0.0274658,0.0152588,-0.0228882,0.0280762,0.0161743,0.0332642,-0.0253296,0.038147,-0.0262451
152,0,0.00946045,0.0115967,0.00701904,0.0146484,0.0231934,0.0299072,0.0247192,0.0289917,0.0296021,0.0375366,-0.0283813,0.032959,0.022583
152,1,-0.0784302,0.0241089,0.0198364,0.0241089,0.0219727,0.00610352,0.0149536,0.0088501,0.0317383,0.0299072,-0.0256348,0.0265503,0.0418091
152,2,-0.0204468,0.027771,0.0299072,0.0213623,0.0198364,0.0131226,0.0210571,0.0247192,0.0180054,0.0402832,0.00335693,0.0402832,0.0299072
152,3,-0.043335,0.0311279,0.0460815,0.0872803,0.00427246,0.0140381,-0.0366211,0.022583,0.0332642,-0.0183105,-0.0256348,0.0119019,0.032959
152,4,-0.0473022,0.0088501,0.0311279,0.0311279,-0.00427246,0.0531006,0.0250244,0.0192261,0.0317383,0.0344849,-0.0369263,0.00457764,0.0216675
153,0,-0.0439453,0.0164795,0.0543213,0.0167847,0.0158691,0.0143433,0.0216675,0.0198364,0.0338745,0.0524902,-0.0430298,-0.00457764,0.0579834
153,1,-0.0375366,0.0360107,-0.00915527,0.0405884,0.00549316,-0.032959,0.0253296,0.0143433,0.0372314,0.0271606,-0.0271606,0.0247192,0.027771
153,2,-0.0390625,0.0372314,0.0134277,0.0152588,0.0286865,0.0158691,0.038147,0.0234985,0.0216675,0.00457764,-0.038147,-0.00640869,-0.0308228
153,3,0.0332642,0.0231934,0.0201416,0.0357056,0.0234985,0.00762939,0.0701904,0.0292969,0.0286865,0.0689697,-0.0311279,0.0213623,0.00915527
153,4,0.0561523,0.017395,0.0012207,0.0216675,0.0216675,0.0112915,0.0323486,0.0222778,0.0338745,0.0241089,-0.0320435,-0.0369263,0.020752
154,0,0.0323486,0.0302124,-0.00183105,0.0311279,0.0119019,-0.00183105,-0.0192261,0.0283813,0.038147,0.0152588,-0.0256348,0.0143433,0.017395
154,1,0.022583,0.0204468,-0.00518799,0.00732422,0.0219727,-0.0170898,0.0256348,0.0228882,-0.00671387,0.0360107,-0.0326538,0.0268555,0.0195312
154,2,0.0109863,0.000610352,0.00518799,0.0289917,0.00976562,0.00640869,0.0268555,0.0317383,0.0286865,0.0241089,-0.0360107,0.0296021,0.017395
154,3,0.0247192,0.027771,0.0180054,0.0439453,-0.043335,0.0247192,0.0244141,-0.0305176,0.0283813,0.0262451,-0.0234985,0.043335,0.0259399
154,4,0.0671387,0.0231934,0.0219727,0.0274658,0.0192261,0.00823975,0.0222778,0.0283813,0.0415039,0.0274658,-0.0292969,0.0436401,0.0134277
155,0,0.045166,0.0350952,0.00305176,0.0192261,0.0787354,0.0164795,0.0167847,-0.000610352,0.0250244,0.017395,-0.0256348,0.0280762,0.0238037
155,1,0.0253296,0.0311279,-0.00183105,0.00610352,0.0164795,0.0427246,0.0430298,0.0164795,0.0286865,0.06073,-0.0198364,0.0292969,0.0286865
155,2,0.00823975,0.0369263,0.0296021,0.0256348,0.0213623,0.0137329,0.0244141,-0.00762939,0.0378418,0.0369263,-0.0198364,0.0305176,0.0192261
155,3,0.0457764,0.032959,-0.00823975,0.00579834,0.00244141,0.0216675,0.00305176,0.0332642,0.0280762,0.0402832,-0.0317383,0.0292969,0.0161743
155,4,0.0799561,0.0314331,0.00488281,0.0125122,0.0228882,0.00488281,0.012207,0.0308228,0.0323486,0.00335693,-0.0247192,0.020752,0.0283813
156,0,0.0558472,-0.000915527,0.0158691,0.00610352,0.00640869,0.0140381,0.0228882,0.0341797,0.0115967,0.0476074,-0.0430298,-0.00854492,-0.000915527
156,1,0.0289917,0.101013,0.0152588,0.0195312,-0.0473022,0.0164795,0.0128174,0.0479126,0.0396729,0.0332642,-0.0253296,-0.00549316,0.0195312
156,2,0.12085,0.0146484,0.00976562,-0.0411987,0.0152588,0.0140381,0.027771,0.0195312,0.0317383,0.0299072,-0.0418091,0.0216675,0.0289917
156,3,0.0549316,0.032959,0.0149536,0.0186157,0.0601196,0.0128174,0.00976562,0.0466919,0.0265503,0.0320435,-0.0506592,-0.00244141,0.0213623
156,4,0.0662231,0.0296021,0.0186157,-0.000915527,0.00366211,0.022583,0.00640869,0.017395,0.0299072,0.0186157,-0.0320435,0.0265503,-0.0140381
157,0,0.0363159,0.0158691,0.0161743,0.0247192,0.0161743,0.0204468,0.017395,0.00762939,0.0274658,0.0286865,-0.039978,0.0158691,0.0375366
157,1,0.0164795,0.0253296,0.0616455,0.0320435,0.0344849,-0.0360107,0.0137329,0.0195312,0.0338745,0.0213623,-0.0302124,0.0247192,0.0238037
157,2,0.0137329,0.0219727,0.0338745,0.0302124,0.0299072,-0.00518799,0.00488281,0.0088501,0.0268555,0.0161743,-0.0375366,0.03479,0.0186157
157,3,-0.0088501,0.0201416,0.0427246,0.0112915,0.017395,0.0228882,0.0430298,0.00396729,0.0158691,0.0372314,-0.0238037,0.0515747,0.0344849
157,4,0.0161743,0.0265503,0.0320435,0.00762939,0.0262451,0.0100708,0.00244141,0.0259399,0.0372314,0.0109863,-0.0439453,0.0411987,0.012207
158,0,0.0296021,0.0811768,0.0344849,-0.00610352,0.0311279,0.0149536,0.0115967,0.0183105,0.0292969,0.0656128,-0.0424194,0.0296021,0.0436401
158,1,0.0183105,0.0253296,0.000305176,0.00549316,0.0119019,0.0234985,-0.0152588,0.0228882,0.039978,0.0335693,-0.0375366,0.0549316,0.022583
158,2,-0.0012207,0.0427246,0.015564,0.0253296,0.0143433,0.0265503,0.0137329,-0.0177002,-0.0164795,0.0314331,-0.0234985,-0.00732422,0.0286865
158,3,-0.00335693,0.0350952,0.0100708,0.00335693,0.0360107,0.0143433,0.0228882,0.0311279,0.0253296,0.0302124,-0.0341797,0.0384521,0.0241089
158,4,-0.0540161,0.0231934,0.0396729,0.0283813,0.00793457,0.00823975,0.0152588,0.0189209,0.0250244,0.027771,-0.0280762,0.0372314,0.0299072
159,0,-0.112305,0.0457764,0.0259399,0.00732422,0.00915527,0.0146484,0.022583,0.0134277,0.0274658,0.0308228,-0.0424194,0.0534058,0.0250244
159,1,-0.109253,0.0195312,0.0390625,0.0210571,-0.00152588,0.0234985,0.0119019,-0.000610352,0.0219727,0.0360107,-0.0445557,0.0497437,0.0244141
159,2,-0.0512695,0.0170898,0.0531006,0.0183105,0.00335693,0.03479,0.0231934,0.0228882,0.0241089,0.0292969,-0.0350952,0.017395,0.0292969
159,3,0.0222778,0.0216675,0.0527954,0.00579834,0.0164795,0.0234985,0.0161743,0.022583,0.0195312,0.0302124,-0.0500488,0.0109863,0.0271606
159,4,0.0762939,0.039978,0.0488281,0.0177002,0.0170898,0.0012207,0.0192261,0.0134277,-0.0140381,0.038147,-0.032959,0.0357056,-0.00335693
160,0,0.10498,0.0384521,0.0247192,0.0115967,0.00976562,0.0088501,0.0012207,0.0125122,0.0344849,0.0390625,-0.0253296,0.0280762,0.0732422
160,1,0.107117,0.0311279,0.0466919,-0.00244141,-0.00152588,0.0448608,0.0149536,0.020752,0.0317383,0.0469971,-0.0292969,0.0311279,0.0286865
160,2,0.128784,0.0302124,0.017395,0.0180054,0.00640869,0.0265503,0.0192261,0.00946045,0.0268555,0.0292969,-0.032959,0.0485229,0.03479
160,3,0.116577,0.0198364,0.0332642,-0.0448608,0.00518799,0.0149536,0.057373,0.0134277,0.0436401,0.0292969,-0.00915527,0.0332642,0.015564
160,4,0.101929,0.0177002,0.0210571,0.0222778,-0.0250244,0.0302124,0.00701904,0.0247192,0.0262451,0.0390625,-0.03479,0.0396729,0.0268555
161,0,0.0662231,0.015564,0.0213623,0.0216675,0.0088501,0.000915527,0.0241089,0.0149536,0.0143433,0.050354,-0.0384521,0.0289917,0.0366211
161,1,0.0634766,0.0515747,-0.00732422,0.0283813,-0.0100708,0.00701904,0.0137329,-0.0497437,0.0158691,0.0180054,-0.017395,0.0164795,0.0161743
161,2,0.0540161,0.00488281,0.00396729,0.0253296,0.00671387,0.0912476,0.0222778,0.0234985,-0.00579834,-0.00732422,-0.0317383,0.0228882,0.00579834
161,3,0.0509644,0.0411987,0.0183105,0.0164795,0.0192261,0.0704956,0.00518799,0.0164795,0.0244141,0.0378418,-0.0323486,0.00579834,0.0250244
161,4,0.038147,0.0268555,0.0933838,0.0292969,0.00946045,0.0527954,0.0213623,0.0164795,0.0323486,0.0463867,-0.0396729,0.0457764,0.0265503
162,0,0.0537109,0.0210571,0.0460815,0.027771,0.0088501,0.0228882,0.0152588,0.0106812,-0.0274658,0.0363159,-0.0341797,0.0210571,0.0311279
162,1,0.0497437,0.0323486,0.0292969,0.0164795,0.0802612,0.0210571,0.012207,0.0442505,0.0250244,0.0442505,-0.0357056,0.050354,0.0332642
162,2,0.010376,0.0283813,0.0228882,0.0445557,0.0201416,0.0201416,0.0726318,0.00152588,0.0198364,0.0308228,-0.0396729,0.0363159,0.0286865
162,3,0.0338745,0.0256348,0.0152588,0.017395,0.00823975,0.0177002,0.0170898,0.00366211,0.0244141,0.0476074,-0.0311279,0.0439453,0.0109863
162,4,0.055542,0.0567627,0.0372314,0.0152588,0.0234985,0.0192261,0.0213623,0.00732422,0.0308228,0.0323486,-0.0378418,0.0683594,0.0296021
163,0,0.09552,0.0372314,0.0418091,0.032959,0.0146484,0.0189209,0.0137329,0.0140381,0.0247192,0.0271606,0.00793457,0.0640869,0.0268555
163,1,-0.0186157,0.0421143,0.0372314,0.017395,0.00274658,-0.0146484,0.027771,0.0100708,0.0134277,0.0140381,-0.0302124,0.0616455,0.0100708
163,2,-0.00854492,0.0256348,0.0561523,0.0189209,0.00152588,0.0100708,0.0134277,-0.00640869,0.0140381,0.0244141,0.00793457,0.0335693,0.0384521
163,3,-0.0924683,0.0158691,0.0527954,0.0299072,-0.0354004,0.00640869,0.0109863,-0.0448608,0.0195312,0.0253296,-0.0360107,-0.00549316,0.032959
163,4,-0.152893,0.0253296,0.0598145,-0.000610352,0.0183105,0.022583,0.0408936,0.000915527,0.00366211,0.062561,-0.0216675,-0.00305176,0.0390625
164,0,-0.140991,0.0354004,0.0567627,0.0204468,0.0143433,0.0189209,0.0244141,0.00244141,0.0256348,0.0280762,-0.0140381,0.0186157,0.0378418
164,1,-0.0732422,0.0387573,0.0323486,0.0271606,0.0146484,0.0204468,0.0244141,0.0140381,0.00701904,0.0430298,-0.0378418,0,0.0265503
164,2,-0.0561523,0.0427246,0.071106,0.0289917,0.0180054,0.00427246,0.0109863,0.00854492,0.0354004,0.0167847,-0.0283813,0.0405884,0.032959
164,3,0.0732422,0.0424194,0.0228882,-0.0216675,0.0213623,0.015564,0.022583,0.0167847,0.0198364,0.0311279,0.00671387,0.0460815,0.0283813
164,4,0.0592041,0.0598145,0.00854492,-0.0244141,0.0256348,0.0183105,0.0305176,0.0109863,0.0167847,0.0299072,-0.0183105,0.0390625,0.0518799
165,0,0.0970459,0.0491333,0.00457764,0.0323486,0.0360107,0.0204468,0.010376,0.0210571,0.0146484,0.0305176,-0.0146484,0.0415039,0.0302124
165,1,0.119019,0.0524902,-0.000610352,0.0247192,0.0241089,-0.0189209,0.0210571,0.0149536,0.03479,0.0183105,-0.0183105,0.0549316,0.0253296
165,2,0.148315,0.0201416,-0.00183105,0.0308228,-0.0115967,0.0134277,0.0204468,0.0186157,0.0234985,0.00152588,-0.0161743,0.0161743,0.038147
165,3,0.152283,0.0177002,0.00762939,0.0283813,0.00854492,0.0332642,0.00610352,0.0241089,0.0393677,0.0201416,-0.0231934,0.0723267,0.0265503
165,4,0.088501,0.0280762,0.0256348,0.0170898,0.00823975,0.0375366,0.00946045,0.0100708,0.0186157,0.00946045,-0.0289917,0.0262451,0.0280762
166,0,0.0863647,0.0332642,0.0115967,0.0454712,0.0119019,0.0244141,0.00366211,0.00732422,0.0250244,0.0216675,-0.0311279,0.100098,0.0485229
166,1,0.0537109,0.0231934,0.0274658,0.0143433,-0.00183105,0.0283813,0.00518799,0.0140381,0.0210571,0.0164795,-0.0289917,0.0534058,0.0222778
166,2,0.0701904,0.0219727,0.0119019,0.0167847,0.0231934,0.0152588,0.00579834,-0.0143433,0.00457764,0.017395,0.00732422,0.0332642,0.0341797
166,3,0.0439453,0.0299072,0.0366211,0.017395,0.015564,-0.00549316,0.00732422,0.00793457,-0.00579834,0.00946045,-0.03479,0.0274658,0.0213623
166,4,0.0473022,-0.0241089,0.0299072,0.0192261,-0.043335,0.0186157,0.0109863,0.0201416,0.0140381,0.0186157,-0.0204468,0.0216675,0.0311279
167,0,0.0448608,0.0311279,0.0317383,0.015564,0.0198364,0.0186157,0.00274658,0.0164795,0.0088501,0.00183105,-0.0198364,0.0271606,0.0408936
167,1,0.0131226,0.0192261,0.0463867,-0.00274658,0.0375366,-0.00335693,-0.0396729,0.00549316,-0.00823975,0.0088501,-0.0296021,0.0415039,0.0259399
167,2,0.0854492,0.0131226,0.0244141,0.0262451,0.0231934,0.0146484,0.0292969,0.012207,-0.00518799,0.0189209,-0.0143433,0.0384521,0.0323486
167,3,0.0479126,0.0238037,0.0415039,0.0286865,0.0289917,0.0238037,0.0201416,0.0146484,0.0234985,0.00518799,-0.0216675,0.0338745,0.0537109
167,4,0.0280762,0.00549316,0.0372314,0.0402832,0.00213623,0.0201416,0.0152588,0.0201416,0.0170898,0.00488281,-0.0244141,0.0518799,0.0372314
168,0,-0.00976562,0.0213623,0.0372314,0.0411987,0.0222778,0.00549316,0.0189209,0.00518799,-0.000610352,-0.0088501,-0.0247192,0.0628662,0.0979614
168,1,-0.0289917,0.0265503,0.0320435,0.0213623,0.012207,0.010376,0.0210571,0.0244141,0.0216675,0.0192261,-0.0311279,0.0418091,0.0564575
168,2,-0.0653076,0.0262451,0.0701904,0.0259399,0.0146484,0.0177002,0.0280762,0.0088501,0.020752,0.000610352,-0.0213623,0.0582886,0.0418091
168,3,-0.0802612,0.0427246,0.0415039,0.0183105,0.0247192,0.0186157,0.0213623,0.0128174,0.00457764,0.0177002,-0.0360107,0.0286865,0.0430298
168,4,-0.0695801,0.0265503,0.0189209,0.0421143,0.0283813,-0.00335693,0.0161743,0.000915527,0.00976562,0.00305176,-0.038147,0.0341797,0.0695801
169,0,-0.0686646,0.0515747,0.0363159,0.0524902,-0.00427246,0.0198364,-0.0354004,0.0152588,0.00457764,0.0402832,-0.0415039,0.00640869,0.0344849
169,1,0.00732422,0.0180054,0.017395,0.0326538,0.0350952,0.0180054,0.0192261,0.0723267,0.0186157,0.0100708,-0.0390625,0.0411987,0.0311279
169,2,0.093689,0.010376,0.0231934,0.0424194,0.0320435,0.038147,0.0149536,0.0167847,0.0210571,0.0180054,-0.0323486,0.0543213,0.0497437
169,3,0.139465,0.0332642,0.0332642,0.0485229,0.0134277,0.012207,-0.0241089,0.0280762,0.0210571,0.0418091,-0.0531006,0.0585938,0.0350952
169,4,0.0540161,0.0100708,0.0540161,0.0469971,0.0265503,0.00518799,0.0357056,0.0115967,0.0335693,-0.00213623,-0.0283813,0.117798,0.0308228
170,0,0.0967407,0.032959,0.0750732,0.0427246,0.017395,0.0393677,0.0119019,0.0106812,-0.00518799,0.010376,-0.0308228,0.0524902,0.0204468
170,1,0.055542,0.0262451,0.0668335,0.0549316,0.0476074,0.0137329,0.0137329,0.00183105,0.00579834,0.00488281,-0.0234985,0.0378418,0.0427246
170,2,0.0454712,0.0469971,0.0518799,0.0421143,0.0274658,0.0198364,0.0119019,-0.0335693,0.0125122,0.00671387,-0.0201416,-0.0354004,0.0369263
170,3,0.0421143,0.0186157,0.0268555,0.045166,0.0317383,0.020752,0.017395,0.0268555,0.020752,0.0140381,0.0186157,-0.0469971,0.0457764
170,4,0.0137329,0.0402832,0.0357056,0.039978,0.0305176,0.0234985,0.0149536,0.010376,0.0180054,0.00762939,-0.0198364,-0.0164795,0.0265503
171,0,-0.0146484,0.038147,0.0274658,0.0344849,0.022583,0.020752,0.0186157,-0.0476074,0.00946045,0.00732422,-0.0314331,0.00183105,0.0241089
171,1,-0.0631714,0.00976562,0.0375366,0.0271606,0.0335693,0.0619507,0.0234985,0.010376,-0.0360107,0.0332642,-0.0280762,0.00671387,0.0299072
171,2,-0.0604248,0.0216675,0.015564,0.045166,0.0152588,0.00701904,-0.0088501,0.0119019,0.0268555,-0.0415039,-0.0344849,-0.00183105,0.0341797
171,3,-0.0393677,0.0170898,0.015564,0.0387573,0.0268555,0.0231934,0.020752,0.0128174,0.0177002,0.015564,-0.0296021,0.0158691,0.0253296
171,4,0.00915527,0.0369263,0.00823975,0.045166,0.0354004,0.0234985,0.0604248,0.0164795,0.0100708,0.0115967,-0.0244141,0.0161743,0.0341797
172,0,0.093689,0.0360107,0.0195312,0.043335,0.0186157,0.0134277,-0.0201416,0.00610352,0.0180054,-0.0262451,-0.0518799,0.0228882,0.0012207
172,1,0.032959,0.0274658,0.0268555,0.0448608,0.0262451,0.0152588,0.00762939,0.00946045,-0.000915527,-0.00152588,-0.0234985,0.0231934,0.0247192
172,2,0.0137329,0.0302124,0.032959,0.0292969,0.0247192,0.00823975,0.0283813,0.012207,0.0357056,0.0344849,-0.0128174,0.0549316,0.0219727
172,3,0.12146,0.0234985,0.0775146,0.0354004,0.0357056,-0.0216675,0.0244141,0.0170898,0.00671387,0.0424194,-0.0125122,0.0247192,0.0137329
172,4,0.115967,0.0289917,0.0088501,0.0372314,0.015564,0.0323486,0.0231934,-0.0241089,0.0183105,0.0363159,-0.0250244,0.0253296,0.0286865
173,0,0.122986,0.010376,-0.00152588,0.0198364,0.0189209,0.0247192,0.0314331,0.0128174,0.00518799,0.0454712,-0.0302124,0.0253296,0.0213623
173,1,0.0939941,0.0247192,0.0186157,0.0250244,0.0210571,0.0341797,0.0372314,0.0183105,0.0183105,-0.00213623,-0.0265503,0.0195312,0.0350952
173,2,0.0527954,0.017395,0.00946045,0.0372314,0.0119019,0.0170898,0.0234985,-0.00823975,0.0247192,0.0479126,0.0177002,-0.00427246,0.0289917
173,3,0.0247192,0.0698853,0.0106812,0.00579834,-0.00854492,0.0323486,0.0241089,0.0305176,0.00549316,0.0387573,-0.0146484,0.0100708,0.0183105
173,4,0.00640869,0.0296021,0.0286865,0.0256348,0.0369263,0.0283813,0.0366211,0.0177002,0.0106812,0.0109863,-0.0283813,0.0152588,0.0149536
174,0,0.00366211,0.0369263,0.0158691,0.0378418,0.0372314,0.0436401,0.0186157,0.0222778,0.0131226,0.0247192,-0.0198364,0.0265503,0.032959
174,1,0.00854492,0.0134277,0.0125122,0.0286865,0.0396729,-0.0283813,0.0259399,0.0228882,0.00488281,0.0186157,-0.027771,0.0183105,0.0198364
174,2,0.00640869,0.0778198,0.0192261,0.0222778,0.0811768,0.0265503,0.020752,-0.0247192,0.0201416,-0.000610352,-0.0213623,0.0305176,0.0244141
