Devices
1000
,,Myon - Voltage,,,,,,,,,,,,,
Frame,Sub Frame,GC-M,TA,SOL,VM,VL,RF,BF,ST,GLUT-M,Gracilis,EO,GC-L,Semimembranosus
,,V,V,V,V,V,V,V,V,V,V,V,V,V
1,0,0.0259399,0.015564,0.012207,0.0128174,-0.00305176,0.00427246,0.0610352,0.0482178,0.0286865,0.0247192,-0.0326538,0.0289917,0.0125122
1,1,0.0430298,0.0140381,0.0247192,0.000305176,0.00366211,0.00579834,0.0497437,0.0369263,0.0216675,0.00396729,-0.0473022,0.0408936,-0.0332642
1,2,0.0360107,0.020752,0.0189209,0.0106812,0.00915527,0.00976562,0.03479,0.0210571,0.0289917,0.0344849,-0.0396729,0.017395,0.027771
1,3,0.0238037,0.0259399,0.0317383,0.0588989,-0.00305176,0.00244141,0.0610352,0.0180054,0.0308228,0.0643921,-0.0384521,0.0250244,0.0308228
1,4,0.0222778,0.0189209,0.0100708,0.00823975,0.000915527,0.0128174,0.0210571,0.0341797,0.0579834,0.0292969,-0.0366211,0.0222778,0.0286865
2,0,0.0393677,0.0256348,0.0311279,0.00610352,0.0311279,0.0299072,0.0314331,0.0424194,0.0262451,0.0170898,-0.0460815,0.0271606,0.00915527
2,1,0.0268555,0.0222778,0.0506592,0.0115967,0.0274658,0.0183105,0.00152588,0.0338745,0.0195312,0.0671387,-0.0357056,0.0274658,0.0787354
2,2,0.0421143,0.0320435,-0.00732422,0.00518799,0.0167847,0.0204468,0.020752,0.0314331,0.039978,0.0332642,-0.0241089,0.0372314,-0.00335693
2,3,0.0128174,0.0216675,0.0238037,0.0244141,0.00610352,0.0241089,0.0311279,0.010376,0.0231934,0.0256348,-0.0137329,0.032959,0.0106812
2,4,0.022583,0.0109863,0.015564,0.00640869,-0.022583,0.0259399,0.0149536,0.0308228,0.0244141,0.0296021,-0.0250244,0.0115967,0.0161743
3,0,0.000305176,-0.00152588,0.0265503,0.00579834,-0.0485229,0.0314331,0.0112915,0.0125122,0.0186157,0.0296021,-0.0320435,0.0463867,0.0146484
3,1,0.0137329,0.0756836,0.0222778,-0.0344849,-0.115051,0.0268555,0.0213623,0.0119019,0.0250244,0.0384521,-0.0311279,0.0186157,0.0195312
3,2,0.065918,0.0177002,0.022583,-0.0421143,-0.0765991,0.0256348,0.03479,0.00457764,0.0338745,0.0408936,0.0189209,0.0357056,0.0100708
3,3,-0.0012207,0.00366211,0.00610352,0.0186157,-0.0231934,0.032959,0.0134277,0.0164795,0.0411987,0.0271606,-0.0411987,0.0238037,0.00915527
3,4,0.0140381,0.0195312,0.00640869,0.020752,-0.022583,-0.0289917,0.0146484,0.0125122,0.0878906,0.0302124,-0.0308228,0.0274658,0.00762939
4,0,0.00762939,0.0137329,0.0216675,0.0311279,0.0378418,0.0115967,0.0213623,0.0119019,0.0335693,0.0360107,-0.0274658,0.0228882,0.00732422
4,1,0.0253296,0.0408936,0.0222778,0.0170898,0.0866699,-0.000610352,0.0259399,0.0247192,0.0326538,0.0323486,-0.0180054,0.0265503,0.0192261
4,2,0.0299072,0.0341797,0.0820923,0.0268555,0.0942993,-0.0747681,0.0512695,0.0640869,0.0134277,0.0280762,-0.03479,0.0683594,0.0210571
4,3,0.0338745,0.0280762,0.0195312,0.00549316,0.103149,0.0204468,0.0411987,0.050354,0.0323486,0.0317383,-0.0558472,0.00915527,0.0158691
4,4,0.0350952,0.038147,0.0415039,0.0247192,0.122986,0.017395,0.0360107,0.0646973,0.0296021,0.0213623,-0.0137329,0.0448608,0.015564
5,0,0.00640869,0.0231934,0.0115967,0.0552368,0.127869,0.0341797,0.0131226,0.06073,0.017395,-0.00671387,-0.0695801,0.0317383,0.0222778
5,1,0.0192261,0.0180054,0.0158691,0.0250244,0.0769043,0.0231934,0.0418091,0.0479126,0.0332642,0.0387573,-0.0402832,0.0228882,0.00610352
5,2,0.0454712,0.0274658,0.0216675,0.0247192,0.0576782,0.0234985,0.0219727,0.0466919,0.0265503,0.0332642,-0.0473022,0.0323486,0.0244141
5,3,0.0366211,0.0320435,0.0262451,0.0228882,0.0256348,0.00488281,0.0210571,0.0219727,-0.012207,0.032959,-0.0442505,0.0442505,0.0445557
5,4,0.0418091,0.0192261,0.0289917,0.0177002,0.0296021,0.0134277,0.0201416,0.0198364,0.0393677,0.0979614,-0.0296021,0.0518799,0.0384521
6,0,0.0622559,-0.00244141,0.0274658,-0.00427246,-0.0183105,0.0201416,0.00823975,0.020752,0.0250244,0.0222778,-0.0326538,0.0357056,0.0286865
6,1,0.0500488,0.0283813,0.0106812,0.0317383,-0.00732422,0.00518799,0.0137329,-0.010376,0.00274658,0.0262451,-0.045166,-0.020752,0.0366211
6,2,0.0189209,0.0152588,0.0387573,0.0354004,-0.0344849,-0.0112915,0.0115967,-0.0128174,0.0164795,0.0170898,-0.0259399,0.00732422,-0.00732422
6,3,0.0119019,0.0271606,0.0411987,0.0360107,-0.0335693,0.00671387,0.00457764,0.00244141,0.0244141,0.0378418,-0.0201416,0.00762939,0.022583
6,4,0.0213623,0.0445557,0.0732422,0.0296021,-0.0128174,-0.0418091,0.0161743,-0.000915527,-0.0204468,0.0244141,-0.0326538,-0.0012207,0.010376
7,0,0.0158691,0.0262451,0.0442505,0.0234985,-0.0088501,0.00366211,0.020752,0.0088501,0.0396729,0.0375366,-0.0384521,0.0210571,0.0238037
7,1,0.03479,0.0201416,0.0357056,0.0457764,-0.00335693,-0.0183105,0.0296021,0.00915527,0.0253296,0.0299072,-0.0442505,0.0366211,0.0268555
7,2,0.0314331,0.0537109,0.0186157,0.0134277,0.0622559,-0.00793457,0.0247192,-0.0411987,0.0234985,0.0323486,-0.0357056,0.0424194,0.0210571
7,3,0.0228882,0.00946045,0.0180054,0.0289917,0.0250244,-0.000915527,0.0149536,0.0338745,0.0112915,0.0546265,-0.043335,0.0457764,0.0161743
7,4,0.0283813,0.0241089,0.0241089,0.0286865,0.0186157,0.0210571,0.0143433,0.0195312,0.0146484,0.0570679,-0.0296021,0.0457764,0.0231934
8,0,0.0378418,0.0543213,0.039978,0.00762939,0.00396729,-0.0189209,0.00915527,0.017395,0.0747681,0.0405884,-0.027771,0.0088501,0.0332642
8,1,0.00946045,0.0439453,0.0448608,0.0244141,0.0186157,0.00762939,0.0158691,0.0222778,0.0164795,-0.00274658,-0.0476074,0.0442505,0.0582886
8,2,-0.0238037,0.0189209,0.0296021,0.0515747,0.0299072,0.0216675,0.0247192,0,0.00701904,0.0701904,-0.0204468,0.0253296,-0.020752
8,3,-0.0430298,0.0375366,0.0317383,0.0219727,0.0183105,0.0146484,0.0167847,0.0109863,-0.00457764,0.0408936,-0.0210571,0.0320435,0.0408936
8,4,0.00976562,0.0338745,0.0314331,-0.0283813,0.0308228,0.0192261,0.0164795,0.00640869,0.0192261,0.0268555,-0.0271606,0.0186157,0.0286865
9,0,-0.0567627,0.0323486,0.0234985,0.0204468,0.0341797,0.020752,0.0369263,0.0137329,0.0112915,0.0137329,-0.0265503,0.0228882,0.0134277
9,1,-0.0494385,0.0262451,0.0253296,0.0213623,0.010376,0.0286865,0.0378418,0.022583,0.0289917,-0.0320435,-0.015564,0.00396729,-0.0354004
9,2,-0.0473022,0.0326538,0.038147,0.0256348,0.0234985,-0.0164795,0.0088501,-0.00244141,-0.00671387,0.0384521,-0.0308228,0.000610352,0.0344849
9,3,0.0320435,0.0372314,0.0186157,0.0213623,0.00732422,-0.0210571,0.0283813,0.00823975,0.020752,0.0372314,-0.0250244,0.027771,0.0234985
9,4,0.0610352,0.0500488,0.03479,0.0262451,0.0177002,0.0357056,0.00610352,0.0137329,0.0772095,0.0305176,-0.0234985,0.0408936,0.0213623
10,0,0.0482178,0.0360107,0.03479,0.00152588,0.0119019,0.0271606,0.0183105,0.00640869,0.0299072,0.0296021,-0.0238037,0.0088501,0.022583
10,1,0.0424194,0.0360107,0.062561,0.0265503,0.0149536,0.0238037,-0.0088501,0.00762939,0.0234985,-0.0128174,-0.0259399,0.015564,-0.0561523
10,2,0.0762939,0.0445557,0.0296021,0.0280762,-0.0137329,0.0204468,0.0161743,0.00854492,0.0088501,0.0289917,-0.0357056,-0.00640869,0.0338745
10,3,0.0857544,0.0296021,0.0549316,0.0259399,0.0231934,0.0189209,-0.00457764,0.012207,0.0268555,0.0149536,-0.0314331,0.0134277,-0.0100708
10,4,0.0479126,0.0375366,0.0125122,0.0216675,0.0128174,0.00518799,0.0128174,0.0186157,0.00244141,0.0296021,-0.0354004,-0.0158691,0.038147
11,0,0.0305176,0.0119019,0.0323486,0.00946045,0.0286865,0.0253296,0.00854492,0.00518799,0.0213623,0.0387573,-0.0384521,0.0198364,0.027771
11,1,0.0500488,0.0253296,0.0198364,0.0317383,0.00305176,0.0161743,0.0201416,-0.043335,0.0250244,0.0332642,-0.0360107,0.00457764,0.0201416
11,2,-0.0210571,0.0384521,0.0241089,0.0164795,0.0088501,-0.00396729,0.0292969,0.0119019,0.0183105,0.0369263,-0.032959,0.0250244,-0.0012207
11,3,0.0616455,0.0488281,0.0357056,0.0177002,0.0265503,0.0247192,0.0234985,0.0720215,0.0299072,0.0274658,-0.0704956,0.0259399,0.0280762
11,4,0.0338745,0.0378418,-0.000305176,-0.0177002,0.0183105,0.0552368,0.0234985,0.0119019,0.0234985,0.0341797,-0.0192261,0.0131226,0.027771
12,0,0.0839233,0.0360107,0.0463867,0.00488281,0.015564,-0.000915527,0.0106812,0.0271606,0.00457764,0.0320435,-0.020752,-0.0582886,0.017395
12,1,0.0753784,0.0177002,0.0088501,0.00305176,0.0164795,0.0320435,0.0271606,0.00244141,0.0231934,0.00732422,-0.0192261,-0.151367,0.0125122
12,2,0.09552,0.0378418,0.0375366,0.0115967,0.0170898,0.0256348,0.00457764,-0.00183105,0.0234985,0.0402832,-0.0112915,-0.172424,0.0726318
12,3,0.0958252,0.0241089,0.0274658,0.0131226,-0.0213623,0.038147,-0.00732422,0.0125122,0.0296021,0.0332642,-0.0238037,-0.143433,0.0299072
12,4,0.0869751,0.0463867,0.0302124,0.00915527,-0.0308228,0.0439453,0.000305176,0.0149536,0.0222778,0.0186157,-0.0189209,-0.0653076,0.0274658
13,0,0.108032,0.0259399,0.03479,0.0268555,-0.0216675,0.0350952,-0.0219727,0.0210571,0.00915527,0.0204468,-0.0213623,0.0927734,0.0186157
13,1,0.0830078,0.0204468,0.00671387,0.00396729,-0.0445557,0.0143433,0.00183105,0.0360107,0.012207,0.0149536,-0.012207,0.0964355,0.0366211
13,2,0.0839233,0.0335693,0.0198364,0.0323486,-0.0305176,0.00427246,0.0216675,-0.0134277,0.0299072,0.0219727,-0.0289917,-0.292053,0.0436401
13,3,0.0866699,0.0372314,-0.000610352,-0.00427246,-0.0106812,0.00488281,0.0231934,0.00732422,0.0250244,0.0234985,-0.0387573,-0.0250244,0.0384521
13,4,0.0704956,0.0262451,0.050354,0.0274658,0.00854492,0.00793457,0.0247192,0.00946045,0.0457764,0.0119019,-0.038147,0.0814819,0.0323486
14,0,0.118408,0.0421143,0.0405884,0.022583,0.0369263,0.00610352,0.0219727,0.0271606,0.0363159,0.0112915,-0.0518799,0.09552,0.0314331
14,1,0.118103,0.027771,0.0265503,0.0521851,0.085144,0.00549316,0.0210571,0.022583,0.0183105,0.00732422,-0.0289917,0.161743,0.038147
14,2,0.0579834,0.0317383,0.0314331,0.00274658,0.088501,0,0.0152588,0.0213623,0.0286865,0.0222778,-0.0323486,0.0924683,0.0271606
14,3,0.0668335,0.072937,0.020752,0.0265503,0.137024,0.00946045,0.0186157,0.0393677,0.0332642,0.0323486,-0.0201416,0.0204468,0.0308228
14,4,0.0720215,0.0296021,0.0613403,0.0436401,0.0646973,0.0164795,-0.0131226,0.0158691,0.0109863,-0.0238037,-0.0320435,0.090332,0.020752
15,0,0.0363159,0.0234985,0.0335693,0.00823975,0.0405884,-0.00640869,0.0222778,0.0317383,0.0292969,0.0296021,-0.0384521,0.109253,0.0518799
15,1,0.0567627,0.0421143,0.0265503,0.0311279,0.0518799,0.00152588,0.0183105,0.0354004,0.010376,0.0256348,-0.0332642,0.152893,0.0289917
15,2,0.0454712,0.0427246,0.0112915,0.0115967,0.0274658,0.00915527,0.0280762,0.0317383,0.0134277,0.03479,-0.0631714,0.126038,0.0411987
15,3,0.101318,0.0393677,0.0210571,0.03479,0.0372314,0.0228882,0.0167847,0.0308228,0.0311279,0.0241089,-0.0305176,0.119019,0.0378418
15,4,0.0115967,0.0326538,0.0259399,0.0396729,0.012207,0.0170898,0.0158691,0.0402832,0.0140381,0.00610352,-0.0161743,0.12207,0.0299072
16,0,0.0125122,0.0360107,0.0338745,0.0231934,0.0149536,0.00793457,0.0231934,0.0177002,0.0109863,0.0149536,-0.0314331,0.126648,0.03479
16,1,0.0689697,0.0369263,0.0482178,0.0210571,0.017395,0.00305176,0.0164795,0.0189209,0.0112915,0.0183105,-0.00976562,0.104065,0.0259399
16,2,0.0268555,-0.00732422,0.0445557,0.0201416,0.0283813,0.0219727,0.0164795,0.000610352,-0.0012207,0.0100708,-0.0378418,0.0881958,0.0518799
16,3,-0.00183105,0.0393677,0.0845337,0.0177002,0.0186157,0.0204468,0.0198364,0.020752,0.0131226,0.00579834,-0.0314331,0.0958252,0.043335
16,4,0.0363159,0.0332642,0.0366211,0.0216675,0.0195312,0.00427246,0.0125122,0.00671387,0.0576782,-0.00427246,-0.0262451,0.0646973,0.0454712
17,0,0.0335693,0.0442505,0.0201416,0.0396729,0.00854492,0.0128174,0.0183105,-0.0140381,0.0183105,0.0204468,-0.017395,0.0854492,0.0210571
17,1,0.0271606,0.0372314,0.0344849,0.0369263,0.012207,0.0112915,0.0408936,0.0134277,0.0161743,-0.0213623,-0.00549316,0.0772095,0.0296021
17,2,0.0219727,0.00457764,0.0204468,0.0234985,0.0402832,0.027771,0.0180054,0.0195312,0.0161743,0.0363159,-0.00671387,0.0646973,0.0128174
17,3,-0.00183105,0.0115967,0.03479,0.0415039,0.0100708,0.0741577,0.0183105,0.0134277,-0.0131226,0.0268555,-0.0259399,0.0463867,0.0265503
17,4,-0.0323486,0.0714111,0.0317383,0.038147,0.090332,0.0280762,0.0128174,0.0283813,0.0170898,0.0228882,-0.0256348,-0.158386,0.0335693
18,0,-0.045166,0.0268555,0.0238037,0.0405884,0.032959,0.0186157,0.0180054,0.00488281,0.0241089,0.032959,-0.0250244,-0.151367,0.0296021
18,1,-0.0796509,0.0256348,0.0271606,0.0268555,0.027771,0.03479,0.0158691,0.00183105,0.062561,0.0262451,-0.0292969,0.10437,0.0369263
18,2,-0.0952148,0.0256348,0.0213623,0.0378418,0.0164795,0.0210571,0.0186157,0.00427246,0.0149536,0.0405884,-0.0268555,0.128784,0.0210571
18,3,-0.120239,0.0228882,0.00549316,0.0274658,0.0186157,0.00152588,0.0363159,0.00915527,-0.0216675,0.0140381,-0.0448608,0.0427246,0.0372314
18,4,-0.0918579,0.00762939,0.043335,0.0210571,0.00915527,0.00946045,0.0131226,-0.00762939,-0.0012207,0.0338745,-0.0296021,0.0680542,0.032959
19,0,-0.0619507,0.0311279,0.0115967,0.0296021,0.00579834,0.0326538,-0.000610352,0.0137329,0.0119019,0.0106812,-0.0274658,0.0585938,-0.00396729
19,1,0.0363159,0.0296021,0.0335693,0.0222778,0.03479,0.0354004,0.00732422,0.00305176,0.00854492,0.0106812,-0.0198364,0.0613403,0.0256348
19,2,0.00915527,0.0204468,0.0332642,0.0186157,0.0180054,0.0363159,0.0131226,0.00274658,0.00915527,0.0119019,-0.0561523,-0.0924683,-0.0204468
19,3,0.0439453,0.0323486,0.0283813,-0.022583,-0.0253296,0.038147,0.0332642,-0.00427246,0.0198364,0.0231934,-0.00213623,-0.223389,0.0253296
19,4,0.0604248,0.0296021,0.0363159,0.0613403,-0.0515747,0.0262451,0.0299072,0.00549316,-0.000915527,0.0354004,-0.03479,-0.151978,0.0299072
20,0,0.0796509,0.0466919,0.0265503,0.0723267,-0.0109863,0.0360107,0.0131226,0.0305176,0.00823975,0.0204468,-0.0247192,-0.0192261,0.0375366
20,1,0.0384521,0.0143433,0.0158691,0.0357056,-0.0506592,0.0445557,0.00915527,0.0366211,0.010376,0.0119019,-0.0216675,-0.0170898,0.0256348
20,2,0.0598145,0.0274658,0.0201416,0.0531006,0.00976562,0.0274658,0.0369263,0.00915527,0.00640869,-0.0186157,-0.0311279,-0.00335693,-0.0387573
20,3,0.0769043,-0.012207,0.0405884,0.022583,0.0592041,0.0341797,0.0305176,0.0125122,0.0125122,0.0299072,-0.0189209,0.0250244,0.0140381
20,4,0.111389,0.0195312,0.00152588,0.0363159,0.0454712,0.0708008,0.0198364,0.0308228,0.0146484,0.015564,-0.017395,-0.020752,0.0262451
21,0,0.108948,0.0259399,0.0335693,0.0402832,0.0845337,0.0244141,0.00976562,0.0378418,0.0186157,0.00701904,-0.0204468,0.0518799,0.0457764
21,1,0.0296021,0.0296021,0.00793457,0.0436401,0.131531,0.022583,-0.0335693,0.0354004,0.00946045,0.0646973,-0.0238037,0.00701904,-0.0299072
21,2,0.0430298,0.00518799,0.0088501,0.0442505,0.107422,0.0238037,0.0265503,0.0219727,0.0161743,0.0448608,-0.0134277,0.088501,0.0662231
21,3,-0.00946045,0.0198364,0.0177002,0.0466919,0.119629,0.0335693,-0.0146484,0.0167847,0.00244141,0.00152588,-0.0271606,0.107117,0.0439453
21,4,-0.00244141,0.0216675,0.0140381,0.043335,0.0933838,0.015564,0.0158691,0.0177002,0.0360107,0.0186157,-0.0286865,0.120239,0.0390625
22,0,-0.0445557,0.00793457,0.0112915,0.0250244,0.0476074,0.0195312,0.0195312,0.0219727,0.00701904,0.0265503,-0.0274658,0.104065,0.0427246
22,1,-0.0350952,-0.0323486,0.0238037,0.0308228,0.0479126,0.0280762,0.00915527,0.0137329,0.010376,0.0308228,-0.0366211,0.109253,0.0305176
22,2,-0.0650024,0.0234985,0.0198364,0.0411987,0.0265503,0.0308228,0.0292969,0.0161743,-0.0213623,0.0164795,-0.0259399,0.0906372,0.0259399
22,3,-0.113525,0.0186157,0.0247192,0.0384521,0.0286865,0.0265503,0.0219727,0.0186157,0.00457764,0.0198364,-0.0241089,0.0866699,0.0283813
22,4,-0.127869,0.0436401,0.0323486,0.0354004,0.0357056,0.0244141,0.0161743,0.0344849,0.0143433,-0.000915527,-0.0216675,0.115662,0.067749
23,0,-0.139465,0.0170898,0.0430298,0.0314331,0.0213623,0.0302124,0.0286865,0.00549316,0.017395,0.00671387,-0.0106812,0.0811768,0.0396729
23,1,-0.168457,0.0192261,0.0473022,0.0332642,0.0250244,0.0283813,0.0183105,0.0320435,0.0234985,-0.00274658,-0.0198364,0.0158691,0.00305176
23,2,-0.10376,0.012207,0.0137329,0.0308228,0.0137329,0.0213623,0.0158691,0.0195312,0.0241089,-0.00152588,-0.0228882,-0.0189209,0.0588989
23,3,0.0369263,0.0210571,0.050354,0.0268555,0.0393677,0.0326538,0.0286865,0.0152588,0.0161743,0.0357056,-0.015564,0.0695801,0.022583
23,4,0.161133,0.0286865,0.0488281,0.0231934,0.0256348,0.0134277,0.0241089,0.0296021,0.0128174,0.0177002,-0.0149536,0.0894165,-0.00488281
24,0,0.190735,0.017395,0.0601196,0.0866699,0.0213623,0.0106812,0.0384521,0.0320435,0.0292969,0.0210571,-0.0213623,0.0790405,0.0183105
24,1,0.229797,0.0186157,0.0558472,-0.00427246,0.00823975,0.0463867,0.0723267,0.0106812,0.0134277,0.00671387,-0.0177002,0.0613403,0.0167847
24,2,0.227661,0.0268555,0.0427246,0.0164795,0.0341797,0.0524902,0.00366211,0.0302124,0.00640869,0.0292969,-0.0164795,0.0650024,0.0231934
24,3,0.220337,0.0323486,-0.000610352,0.0192261,0.0350952,0.0137329,0.0146484,0.0350952,0.0244141,0.0177002,-0.00427246,0.0689697,0.0140381
24,4,0.114441,0.0411987,0.00518799,0.0271606,0.0317383,0.0427246,0.0186157,0.00976562,0.010376,0.0268555,0.00488281,0.0479126,0.0292969
25,0,0.0918579,0.0213623,0.0149536,0.022583,0.0326538,0.0302124,0.0119019,0.027771,0.0238037,0.00946045,-0.0210571,0.06073,0.0531006
25,1,0.0854492,-0.00762939,0.00518799,0.0317383,0.0866699,0.0384521,0.0305176,-0.0280762,0.0143433,0.00579834,-0.015564,0.0457764,0.0354004
25,2,0.0192261,0.0256348,-0.000610352,0.0405884,0.0302124,0.0344849,0.0125122,0.00640869,0.00427246,0.0222778,-0.0128174,0.0454712,0.0109863
25,3,0.0283813,0.0164795,-0.00305176,0.0234985,0.0320435,0.0619507,0.0177002,-0.00671387,0.0192261,0.0262451,0.00244141,0.038147,0.0735474
25,4,0.0427246,0.0387573,0.000305176,0.00854492,0.0296021,0.0363159,0.0201416,0.00244141,0.00976562,0.0134277,-0.0201416,-0.072937,0.00579834
26,0,0.0183105,0.0457764,0.0149536,0.017395,-0.0308228,0.0192261,0.0131226,0.0308228,0.0280762,0.0271606,-0.00976562,0.0164795,0.00793457
26,1,0.101929,0.032959,0.00915527,0.0143433,0.00366211,-0.000915527,0.0250244,-0.00610352,0.0250244,-0.0131226,-0.0088501,0.0302124,-0.0201416
26,2,0.0854492,-0.00152588,0.027771,0.0268555,0.0402832,0,0.0268555,-0.00549316,0.0177002,0.0192261,0.00244141,0.020752,0.00427246
26,3,0.038147,0.0531006,0.0247192,0.0396729,-0.0286865,0.000915527,0.0268555,0.0494385,0.0350952,-0.00427246,-0.00854492,-0.0170898,0.0137329
26,4,0.0338745,0.0332642,0.0311279,0.0332642,-0.0891113,0.0088501,0.022583,0.0183105,0.0177002,0.0119019,-0.0119019,0.0115967,0.0149536
27,0,0.0546265,0.0299072,0.0296021,0.015564,-0.00183105,0.00244141,0.0317383,0.06073,0.0280762,0.0183105,-0.0131226,-0.043335,0.00946045
27,1,0.0119019,0.0259399,0.0198364,0.0579834,0.00152588,0.0183105,0.0537109,0.0631714,0.0286865,0.0125122,-0.0216675,-0.032959,0.0299072
27,2,0.0604248,0.0320435,-0.00305176,0.039978,0.027771,0.00305176,0.0283813,0.0259399,0.0244141,0.0253296,-0.00549316,-0.0494385,0.0473022
27,3,0.0701904,0.0219727,-0.00488281,0.0204468,0.0332642,0.00701904,0.0424194,0.0411987,0.0265503,0.022583,-0.010376,0.0418091,0.00671387
27,4,0.0653076,0.0323486,0.0231934,0.0332642,0.0372314,0.03479,0.0387573,0.0378418,0.00305176,-0.00274658,-0.0183105,-0.108948,0.0296021
28,0,0.0656128,0.0299072,0.0311279,0.00915527,0.0585938,0.00823975,0.038147,0.0259399,0.0119019,0.0274658,-0.015564,-0.180664,0.045166
28,1,0.055542,0.0219727,0.0262451,-0.010376,0.0646973,0.0283813,-0.00183105,0.0537109,0.0216675,0.0106812,-0.020752,-0.109558,0.0280762
28,2,0.0585938,0.0396729,0.0292969,0.0164795,0.0448608,0.0305176,0.0457764,0.0341797,0.0204468,-0.00640869,-0.0198364,0.00518799,-0.0238037
28,3,0.0527954,0.0201416,0.0265503,0.0308228,0.0363159,0.0283813,0.0219727,0.0350952,0.0183105,-0.0134277,-0.0241089,-0.0195312,-0.0280762
28,4,0.0518799,0.0177002,0.0234985,0.03479,0.0314331,0.0881958,0.0387573,0.0326538,-0.020752,0.0234985,-0.00152588,-0.0131226,0.0228882
29,0,0.0592041,0.0204468,0.00793457,0.0189209,0.0570679,0.0540161,0.0268555,0.0372314,0.0161743,0.0198364,-0.0299072,-0.103455,0.0112915
29,1,0.000915527,0.0314331,0.0265503,0.022583,0.022583,0.0335693,0.0317383,-0.00732422,0.00244141,0.0170898,0.00732422,-0.0579834,0.0213623
29,2,-0.00823975,0.0283813,0.017395,0.0384521,0.0317383,0.0271606,0.0195312,0.0128174,0.0177002,-0.0112915,-0.0210571,-0.00396729,0.0259399
29,3,-0.0195312,-0.00946045,-0.00579834,0.0363159,0.0228882,0.0827026,0.0253296,0.0234985,0.0250244,0.0335693,-0.0149536,0.0524902,0.00915527
29,4,-0.00213623,0.0311279,0.0576782,-0.00946045,0.0192261,0.0280762,0.00396729,0.00915527,0.0143433,0.00396729,-0.0238037,0.0802612,0.0259399
30,0,-0.0088501,0.015564,0.0112915,0.0183105,0.0253296,0.015564,0.0354004,0.0259399,0.0186157,-0.0012207,-0.0143433,-0.0485229,0.0234985
30,1,-0.0216675,0.0198364,0.0274658,0.0100708,0.0296021,0.0219727,0.0317383,0.0466919,0.0259399,0.0177002,-0.020752,0.0216675,0.012207
30,2,-0.0344849,0.027771,0.0274658,0.032959,0.0378418,0.0274658,0.0317383,0.0299072,0.0259399,0.00579834,-0.0305176,0.0183105,0.03479
30,3,-0.0143433,0.027771,0.0302124,0.0198364,-0.0201416,0.0396729,0.0250244,-0.000305176,0.0280762,0.00915527,-0.0109863,0.0869751,0.0198364
30,4,-0.0012207,0.0662231,0.00732422,0.0292969,-0.00183105,0.0338745,0.0238037,0.0186157,0.0143433,-0.00152588,-0.0177002,0.0546265,0.0234985
31,0,-0.010376,0.0262451,0.0146484,0.0195312,-0.00640869,0.0445557,0.0210571,0.022583,0.0140381,0.0216675,-0.0222778,-0.0460815,0.0128174
31,1,0.0570679,0.020752,0.0244141,0.03479,-0.0265503,0.0350952,-0.00488281,0.0128174,0.00732422,-0.0265503,0.0189209,0.118408,0.055542
31,2,-0.0241089,0.0109863,0.022583,0.0256348,-0.0595093,0.0344849,-0.00732422,0.0134277,0.0314331,0.0585938,-0.0149536,0.126953,0.0268555
31,3,-0.0146484,0.0146484,0.00732422,0.0186157,-0.065918,0.0387573,0.0289917,0.0195312,0.0238037,0.000915527,-0.0170898,0.124817,-0.0106812
31,4,0.0427246,0.0247192,0.0125122,0.0350952,-0.0408936,0.0732422,0.0296021,0.017395,0.0195312,0.012207,-0.0140381,0.102844,0.0189209
32,0,-0.00976562,-0.0137329,0.0326538,0.0247192,-0.0262451,0.0231934,0.032959,0.0622559,0.0149536,0.0119019,-0.00793457,0.101929,0.00762939
32,1,-0.0183105,0.0106812,0.0817871,0.0445557,0.072937,0.00946045,0.0543213,0.0421143,0.0244141,-0.00488281,-0.017395,0.0982666,0.015564
32,2,-0.0183105,0.00305176,0.0442505,0.0427246,0.110474,0.0534058,0.0723267,0.0167847,-0.0088501,0.00793457,-0.0158691,0.0897217,0.0161743
32,3,-0.0186157,0.0183105,0.0326538,0.0195312,0.109863,0.0436401,0.0393677,0.0384521,0.0302124,0.00457764,-0.045166,0.0244141,0.0137329
32,4,0.000610352,0.0161743,0.0796509,0.0363159,0.154419,0.0674438,0.0418091,0.0317383,0.0299072,0.0152588,-0.0314331,0.0219727,0.0125122
33,0,-0.00732422,0.0299072,0.0286865,0.0283813,0.197754,0.0439453,0.0360107,0.0375366,0.0341797,0.00946045,-0.022583,0.0469971,0.00946045
33,1,0.00732422,0.0137329,0.0128174,0.0341797,0.145874,0.0241089,0.0283813,0.0262451,0.0250244,0.00976562,-0.0253296,0.0952148,0.00457764
33,2,0.000305176,-0.0366211,0.0271606,0.0354004,0.114441,0.0198364,0.0262451,0.0280762,0.0234985,0.0238037,-0.027771,0.093689,0.0170898
33,3,0.00305176,0.00244141,0.0164795,0.00976562,0.0601196,0.0360107,-0.0253296,0.0213623,0.0305176,0.101624,-0.0146484,0.0616455,-0.0363159
33,4,-0.0119019,0.0204468,-0.000610352,0.0189209,0.0631714,0.0357056,0.0354004,0.00488281,0.022583,0.0180054,-0.0137329,0.0436401,0.0256348
34,0,0.00274658,0.00305176,-0.027771,0.0296021,0.045166,0.0772095,0.0231934,0.0396729,0.0341797,0.0183105,-0.0146484,0.0512695,0.0106812
34,1,0.00610352,0.0360107,-0.0180054,0.0286865,0.0430298,0.0180054,-0.0012207,0.00518799,0.03479,0.0366211,-0.017395,0.043335,0.0131226
34,2,0.020752,-0.00915527,-0.00549316,-0.00579834,0.0357056,0.0247192,0.039978,0.022583,0.0262451,0.0216675,-0.0250244,0.0180054,0.027771
34,3,0.0128174,0.00946045,0.0494385,0.0256348,0.0213623,0.0167847,0.0262451,0.0320435,0.0213623,0.00701904,-0.020752,0.0296021,-0.00213623
34,4,0.0115967,0.017395,0.00762939,0.0247192,0.0231934,0.0228882,0.0274658,0.0360107,0.0219727,0.0183105,0.0228882,0.0259399,0.0280762
35,0,0.0164795,0.03479,0.00793457,0.0210571,0.032959,0.0228882,0.0360107,0.032959,0.0262451,0.00457764,-0.017395,0.0259399,0.0088501
35,1,-0.0631714,0.0106812,0.010376,0.0177002,0.00549316,0.0119019,0.0488281,0.0402832,0.0164795,0.0128174,-0.0128174,0.0250244,0.0195312
35,2,0.00457764,0.00854492,0.017395,0.010376,-0.0115967,0.0256348,0.0308228,0.0357056,0.0149536,0.00579834,-0.0189209,0.0152588,0.0152588
35,3,0.0112915,0.00976562,0.0265503,0.043335,0.0106812,0.0283813,-0.00518799,0.0384521,0.0323486,0.010376,-0.017395,0.0259399,0.0842285
35,4,-0.00671387,0.00488281,0.00732422,0.0186157,0.0128174,0.0448608,0.03479,0.0219727,0.0183105,0.00549316,-0.0146484,0.0106812,0.0186157
36,0,0.00640869,0.0323486,0.0228882,0.0201416,0.0088501,0.0390625,-0.00793457,-0.00274658,0.0143433,-0.0741577,-0.00579834,0.010376,-0.0375366
36,1,0.0183105,0.0302124,0.0253296,0.0177002,-0.00610352,0.0405884,0.00732422,0.0192261,0.0222778,-0.010376,-0.0115967,0.0241089,0.0396729
36,2,0.00396729,0.022583,0.0299072,0.00915527,0.000915527,0.0341797,0.0335693,0.0134277,0.0369263,0.00213623,-0.0204468,0.00854492,0.0241089
36,3,0.00427246,0.0146484,0.0231934,0.0119019,-0.00366211,0.0421143,0,0.0192261,0.012207,-0.000305176,-0.0131226,-0.010376,0.0231934
36,4,0.00305176,0.0170898,0.0332642,0.0137329,0.0198364,0.00244141,0.0213623,0.0143433,0.012207,-0.000915527,-0.0238037,-0.0180054,-0.00701904
37,0,0.00427246,0.0415039,-0.0012207,0.0177002,0.00610352,0.0509644,0.0271606,0.0137329,0.0238037,0.00732422,-0.0247192,-0.0488281,0.0311279
37,1,0.0100708,0.0479126,0.0216675,0.000305176,-0.0256348,0.0448608,0.0430298,0.0231934,0.020752,0.000305176,-0.0305176,0.00915527,0.0274658
37,2,0.0131226,0.0177002,-0.00762939,0.0262451,0.0241089,0.0479126,0.0219727,0.0506592,0.0259399,-0.00366211,-0.043335,-0.0601196,0.0250244
37,3,0.00671387,-0.0106812,0.0280762,0.0265503,0.0296021,0.0500488,0.0253296,0.0161743,0.022583,0.0119019,-0.0210571,-0.0375366,0.0289917
37,4,0.0106812,0.0128174,0.0170898,-0.0112915,0.0473022,0.0250244,0.0430298,0.0317383,0.0186157,0.00762939,-0.0354004,0.00427246,0.0314331
38,0,0.000610352,-0.012207,-0.000915527,0.0195312,0.072937,0.0268555,0.0457764,-0.0292969,0.017395,-0.0161743,-0.0213623,-0.00396729,0.0372314
38,1,0.00427246,0.0161743,-0.00244141,0.0195312,-0.00244141,0.00457764,0.0518799,0.0552368,0.00244141,0.00854492,-0.0292969,0.00152588,0.0314331
38,2,0.0222778,0.00305176,0.00671387,0.0302124,-0.0158691,0.00701904,0.0244141,0.0463867,0.0268555,0.0335693,-0.0219727,0.00366211,0.0314331
38,3,0.022583,0.00915527,0.0106812,0.00671387,-0.00335693,0.0280762,0.0411987,0.0244141,0.0115967,0.0161743,-0.022583,0.00701904,0.0332642
38,4,0.0161743,0.0109863,0.0137329,0.0115967,-0.0338745,0.00823975,0.0234985,0.0521851,0.0354004,0.0357056,-0.0213623,0.00488281,0.0140381
39,0,0.0335693,0.00366211,0.010376,-0.0012207,0.00640869,0.015564,0.0506592,0.0311279,0.0189209,0.0616455,-0.0320435,0.0231934,0.0234985
39,1,0.0131226,-0.00305176,0.00549316,0.0241089,0.0250244,0.0222778,0.0283813,0.0463867,0.0430298,0.0292969,-0.0250244,0.0195312,0.0250244
39,2,0.0134277,0.020752,-0.000915527,0.0106812,0.0280762,0.00946045,0.0350952,0.0357056,0.0241089,-0.0131226,-0.0305176,0.0268555,0.0201416
39,3,0.00976562,0.0115967,-0.00274658,0.00213623,0.0283813,0.012207,0.0259399,0.0335693,0.00152588,0.043335,-0.0268555,0.0198364,0.00701904
39,4,0.0280762,0.0106812,0.0521851,0.0012207,0.0338745,0.0296021,0.0161743,0.0387573,0.022583,0.0448608,-0.0234985,0.0183105,0.0158691
40,0,0.0213623,0.0204468,0.0653076,0.0134277,0.0201416,0.0250244,0.0357056,0.0332642,0.0259399,0.0421143,-0.0189209,0.0305176,0.0256348
40,1,0.0457764,0.00488281,0.0109863,0.00366211,0.0134277,0.020752,0.0344849,0.020752,0.0274658,0.0622559,-0.0335693,0.017395,0.0341797
40,2,0.0112915,0.0128174,0.0341797,0.0149536,0.0161743,0.0326538,0.032959,0.0183105,0.0231934,0.0662231,-0.0222778,0.0204468,0.0198364
40,3,0.0134277,-0.039978,0.0210571,0.00976562,0.022583,0.0280762,0.0289917,0.0259399,0.0448608,0.0485229,-0.0323486,-0.00976562,0.0204468
40,4,0.00854492,0.0112915,0.00274658,0.0183105,0.0247192,0.0411987,0.0769043,0.032959,0.0375366,0.0469971,-0.0283813,-0.0317383,0.015564
41,0,0.00946045,-0.00488281,0.0115967,0.0177002,0.00854492,0.0430298,0.0326538,0.0335693,0.0817871,0.0457764,-0.0271606,-0.0408936,0.0125122
41,1,0.020752,0.0448608,0.0268555,0.0146484,0.0286865,0.0384521,0.022583,0.0845337,0.0540161,0.0521851,-0.0247192,-0.0375366,0.0274658
41,2,0.0308228,0.0128174,0.0341797,0.0106812,0.0228882,0.0280762,0.0265503,0.0238037,0.0338745,0.0567627,-0.0369263,-0.00457764,0.0228882
41,3,0.0308228,0.012207,0.012207,0.0286865,0.00915527,0.0448608,0.0259399,0.0393677,0.0283813,0.0482178,-0.0268555,0.0204468,0.0308228
41,4,0.0210571,0.00701904,0.0195312,0.0195312,0.0106812,0.0302124,0.0134277,0.0271606,0.0317383,0.0427246,-0.0476074,0.0411987,0.0119019
42,0,0,0.0241089,-0.000915527,0.0201416,0.0274658,0.032959,0.0335693,0.0244141,0.0512695,0.0518799,-0.0271606,0.0238037,-0.00579834
42,1,-0.0012207,0.0152588,0.0106812,0.017395,0.0247192,0.0369263,0.0213623,0.0140381,0.0439453,0.0463867,-0.0201416,0.0372314,0.0112915
42,2,0.00701904,0.0149536,0.0234985,0.0106812,0.0216675,0.0201416,0.0149536,0.020752,0.0622559,0.0469971,-0.027771,0.0637817,0.0158691
42,3,-0.0112915,0.0302124,0.0204468,0.0161743,-0.0363159,0.010376,0.0274658,0.0378418,0.0332642,0.0411987,-0.0421143,0.0350952,0.0521851
42,4,-0.0515747,0.00244141,-0.0418091,-0.0100708,0.00213623,-0.0189209,0.0296021,0.0311279,0.045166,0.0485229,-0.0228882,0.0201416,0.0128174
43,0,-0.0531006,0.00152588,0.0366211,0.0219727,0.00793457,0.0192261,0.0198364,0.0308228,0.010376,0.0415039,-0.0308228,0.0128174,0.0128174
43,1,-0.083313,0.00183105,0.0317383,0.0665283,0.0323486,0.0170898,0.0265503,0.0177002,0.0262451,0.0491333,-0.0308228,0.015564,0.0198364
43,2,-0.0473022,0.0241089,0.0134277,0.0241089,0.0778198,0.0213623,0.0244141,-0.0210571,0.0308228,0.0427246,-0.06073,0.00457764,0.0115967
43,3,-0.0177002,0.0177002,0.0308228,0.0292969,0.0152588,0.0427246,0.0180054,0.0189209,0.0149536,0.0289917,-0.039978,0.00946045,0.000610352
43,4,0.00396729,-0.0247192,0.0012207,0.00976562,-0.0109863,0.0198364,0.0134277,0.0531006,0.045166,0.0350952,-0.0360107,0.017395,0.0228882
44,0,0.0521851,0.00762939,-0.0244141,0.0195312,0.00793457,-0.0439453,0.0137329,0.00671387,0.00732422,0.039978,-0.0320435,0.0100708,0.0146484
44,1,0.0900269,0.0204468,-0.0262451,0.0259399,0.0149536,-0.00488281,0.017395,0.0125122,0.00946045,0.0280762,-0.0354004,0.0234985,0.0238037
44,2,0.0979614,0.0259399,0.085144,0.0131226,0.00579834,0.0845337,0.0134277,0.0115967,0.0619507,0.0305176,-0.0192261,0.0170898,0.0161743
44,3,0.0762939,0.0125122,-0.0204468,0.0415039,0.0100708,-0.038147,0.0164795,0.0262451,0.010376,0.0241089,-0.0366211,-0.0167847,0.0216675
44,4,0.0689697,-0.00793457,0.0109863,0.0305176,-0.0302124,0.0216675,0.027771,-0.0158691,0.0427246,0.015564,-0.0308228,0.0115967,0.0195312
45,0,0.0460815,0.0219727,0.00732422,0.0158691,-0.0592041,0.0128174,0.0210571,0.0314331,0.012207,0.0186157,-0.0317383,0.00976562,0.0140381
45,1,0.0320435,0.0299072,-0.00457764,0.00305176,-0.0738525,0.0088501,0.0354004,0.0231934,0.032959,0.017395,-0.0259399,0.0146484,0.00946045
45,2,0.0125122,0.0256348,0.0280762,0.0271606,-0.0482178,0.0186157,0.0140381,0.00396729,0.0137329,0.0283813,-0.0268555,0.00823975,0.0158691
45,3,0.0405884,0.0167847,0.0283813,0.0128174,-0.0326538,0.0125122,0.0161743,0.0448608,0.020752,0.0247192,0.00305176,0.000305176,0.0134277
45,4,-0.0344849,0.0341797,0.0143433,0.0161743,0.0256348,0.0231934,0.0283813,0.0332642,0.0180054,0.0387573,-0.0210571,-0.0314331,0.0216675
46,0,-0.0125122,0.0100708,0.0167847,0.0137329,0.0473022,0.0198364,0.0213623,0.0323486,0.045166,0.0204468,-0.00488281,-0.0640869,0.0256348
46,1,-0.0250244,-0.0299072,0.000610352,0.0140381,0.0323486,0.00915527,0.0146484,-0.00701904,0.0271606,0.0161743,-0.0344849,-0.0268555,0.0238037
46,2,0.0732422,0.0119019,0.00854492,0.0378418,0.0820923,-0.000915527,-0.0210571,0.0445557,0.0479126,0.0396729,-0.0405884,-0.0561523,0.0134277
46,3,-0.00732422,0.00183105,0.0253296,0.00854492,0.0744629,-0.00244141,0.0204468,0.0250244,0.00183105,0.0213623,-0.03479,-0.00976562,0.027771
46,4,-0.00793457,0.0125122,0.00640869,0.0189209,0.0701904,0.0189209,0.0210571,0.0259399,0.0393677,0.0210571,-0.0247192,0.0469971,-0.0134277
47,0,0.00274658,0.0210571,-0.0115967,0.0143433,0.0445557,0.00152588,-0.00427246,0.0189209,0.0402832,0.0350952,-0.0302124,0.00610352,0.0167847
47,1,-0.0552368,0.0256348,-0.00244141,0.020752,0.0366211,0.0241089,0.0323486,0.0259399,0.0360107,0.0238037,-0.027771,0.0323486,0.0100708
47,2,0.0564575,0.017395,-0.0012207,0.0527954,0.043335,0.017395,-0.0213623,0.0271606,0.0100708,0.0198364,-0.0289917,0.0427246,0.00915527
47,3,0.0823975,0.012207,0.0259399,0.0128174,-0.00915527,0.0231934,0.000610352,0.0558472,0.0128174,0.0244141,-0.0320435,0.0317383,0.00976562
47,4,0.0238037,0.00854492,0.00213623,0.0143433,-0.000915527,0.0991821,0.0244141,0.027771,0.0137329,0.0219727,-0.0320435,0.0158691,0.00732422
48,0,0.0646973,0.0204468,0.0244141,0.00549316,-0.0192261,0.017395,0.0274658,0.0137329,0.0238037,0.0143433,-0.0305176,0.0405884,0.00488281
48,1,0.0665283,0.0140381,0.0250244,0.0238037,-0.0384521,0.0265503,0.0360107,0.0140381,0.0875854,0.0115967,-0.0238037,-0.000915527,0.0109863
48,2,0.0909424,0.0296021,0.0357056,0.0192261,-0.0466919,0.0421143,-0.00366211,0.010376,0.0350952,0.00457764,-0.0326538,0.0405884,0.0250244
48,3,0.101929,0.0259399,0.0271606,0.0164795,-0.0408936,0.0338745,0.00274658,0.000915527,-0.00518799,0.0109863,-0.0210571,0.0906372,0.0265503
48,4,0.107117,0.0280762,0.0363159,0.0271606,-0.0384521,0.0241089,0.0109863,0.0204468,0.0201416,-0.00579834,-0.0369263,0.0100708,0.022583
49,0,0.102234,-0.000915527,0.000610352,0.0253296,-0.027771,-0.00854492,0.0234985,-0.00579834,0.0558472,0.0161743,-0.0448608,0.0198364,0.0323486
49,1,0.0878906,0.0189209,-0.0152588,0.0286865,-0.0231934,0.0262451,-0.0311279,0.00854492,0.032959,0.00762939,-0.0363159,0.0271606,0.0231934
49,2,0.0582886,-0.0326538,0.0131226,0.03479,-0.0259399,0.0137329,0.012207,0.0320435,0.0219727,0.00915527,-0.0198364,0.0363159,0.0250244
49,3,0.0125122,0.0228882,0.0106812,0.0424194,0.0662231,-0.0283813,0.032959,0.0436401,0.0415039,0.0234985,-0.0271606,0.020752,0.0198364
49,4,-0.0143433,0.0393677,0.0323486,0.0140381,0.0689697,0.0088501,-0.0274658,0.0375366,0.0363159,0.0143433,-0.022583,0.0274658,0.0198364
50,0,0.0985718,0.0164795,0.0100708,0.0201416,0.0991821,0.00762939,0.0259399,0.0320435,0.0109863,0.0100708,-0.0213623,0.0250244,0.0204468
50,1,0.115662,0.0271606,0.0195312,0.0259399,0.0744629,0.0137329,0.0241089,0.022583,0.0296021,0.0283813,-0.0405884,0.0390625,0.0308228
50,2,0.0930786,0.0143433,0.00976562,0.017395,0.0512695,0.0195312,0.0283813,0.0445557,0.0280762,0.03479,-0.0299072,0.0421143,0.0186157
50,3,0.0485229,0.0280762,0.00732422,0.0314331,0.0616455,0.00732422,0.0131226,0.0308228,0.0335693,-0.0186157,-0.0302124,0.0262451,0.0152588
50,4,0.0375366,0.0268555,-0.0106812,0.0244141,0.0473022,-0.00457764,0.0213623,0.0292969,0.0463867,0.0308228,-0.032959,0.0549316,0.0149536
51,0,0.038147,0.0274658,0.0396729,0.0128174,0.0259399,0.00457764,0.0164795,0.0140381,0.0216675,0.0335693,-0.0253296,0.0326538,0.0244141
51,1,0.0265503,0.0415039,0.0134277,0.0427246,0.0152588,0.00946045,0.0177002,0.022583,0.027771,0.0332642,-0.0363159,0.0195312,0.0222778
51,2,0.0320435,0.0238037,-0.00183105,0.0375366,0.0112915,0.00854492,0.0216675,0.0161743,0.0280762,0.0222778,-0.0469971,0.00671387,0.0866699
51,3,0.0317383,0.0213623,0.0256348,0.0234985,0.00427246,0.00335693,-0.0289917,0.0259399,0.0204468,0.0668335,-0.0439453,-0.0213623,0.0286865
51,4,0.0476074,0.0140381,0.00640869,0.0222778,0.0344849,-0.000610352,0.0100708,0.0769043,0.0271606,0.0286865,-0.0418091,0.0164795,0.0302124
52,0,0.0183105,0.0286865,-0.0326538,0.0146484,0.0100708,0.0326538,0.00305176,0.0213623,0.0344849,0.0369263,-0.0408936,0.0360107,0.0473022
52,1,0.0372314,0.0238037,-0.00762939,0.0219727,-0.0137329,0.00213623,-0.0338745,0.0186157,0.0253296,0.0509644,-0.0463867,0.0302124,0.0415039
52,2,-0.000915527,0.0408936,0.0149536,0.0256348,0.00518799,0.00488281,0.00732422,0.0146484,0.0289917,0.0259399,-0.0311279,0.0650024,0.0326538
52,3,0.0360107,0.0268555,0.0115967,0.00701904,0,0.0769043,0.0201416,0.000915527,0.0323486,0.0405884,-0.032959,-0.0112915,0.0280762
52,4,0.0302124,0.0418091,0.0201416,0.0250244,-0.00488281,0.0268555,0.0125122,-0.00244141,0.0167847,0.0201416,-0.0253296,0.0415039,0.022583
53,0,0.022583,0.0445557,0.0198364,0.0372314,-0.0161743,0.0286865,0.0314331,-0.0543213,0.00976562,0.0344849,-0.0299072,0.0308228,0.0302124
53,1,0.0439453,0.0302124,0.0167847,0.0140381,-0.00732422,0.0460815,0.00946045,-0.0100708,0.0128174,0.027771,-0.012207,0.0109863,0.0274658
53,2,0.0262451,0.0405884,0.0228882,0.0167847,0.00274658,0.0360107,0.00732422,-0.0143433,0.0198364,0.017395,-0.027771,0.0161743,0.0149536
53,3,0.0338745,0.0476074,0.03479,0.0308228,0.000915527,0.0152588,0.03479,-0.0448608,0.0183105,0.0244141,-0.0256348,0.043335,0.0137329
53,4,0.0100708,0.0296021,0.072937,0.0128174,0.00793457,-0.00488281,0.0421143,0.0247192,-0.0115967,0.0253296,-0.0418091,0.0888062,0.0238037
54,0,0.0189209,0.0219727,0.0210571,0.0180054,-0.00518799,0.0180054,0.0198364,0.0518799,0.0283813,-0.0344849,-0.0469971,0.0195312,-0.017395
54,1,0.0488281,0.0384521,0.0222778,0.0131226,-0.000915527,0.0146484,-0.00396729,0.00671387,0.0177002,0.0204468,-0.0421143,0.0219727,0.0247192
54,2,-0.0125122,0.0308228,0.0335693,0.0244141,-0.00915527,0.0561523,0.0448608,0.022583,0.0247192,0.0299072,-0.0375366,0.0143433,0.0311279
54,3,0.0811768,0.027771,0.0241089,0.010376,-0.0183105,0.0167847,-0.0219727,0.00579834,0.0241089,-0.0332642,-0.0662231,0.0286865,0.0134277
54,4,0.0305176,0.0299072,0.0338745,0.0216675,-0.0363159,-0.0164795,0.00152588,0.0311279,0.0213623,0.027771,-0.0247192,0.039978,0.0274658
55,0,0.0128174,0.0509644,0.0134277,0.0146484,-0.0213623,-0.000915527,0.0183105,0.0250244,0.0518799,0.0241089,-0.0265503,0.0485229,0.022583
55,1,0.0192261,0.00671387,0.0415039,0.017395,0.03479,-0.0619507,0.015564,0.00244141,0.0323486,0.0180054,-0.0418091,0,0.027771
55,2,0.0161743,0.0192261,0.0177002,0.0149536,0.0308228,-0.0204468,0.0222778,-0.00427246,0.0170898,0.00915527,-0.0311279,0.0320435,0.0283813
55,3,0.0265503,0.0158691,0.0259399,0.0198364,0.0430298,-0.00213623,0.027771,0.0234985,0.0476074,0.0210571,-0.0387573,0.0210571,0.0222778
55,4,0.0271606,0.00823975,0.0366211,0.00915527,0.050354,-0.0088501,-0.00823975,0.0402832,0.0158691,0.0390625,-0.0509644,0.0372314,0.03479
56,0,0.0250244,0.0485229,0.0210571,0.0161743,0.0527954,-0.00305176,0.0219727,0.0161743,0.0137329,0.0335693,0.00640869,0.027771,0.0375366
56,1,0.0222778,-0.0192261,0.0280762,0.0128174,0.0131226,-0.0170898,0.0222778,0.0662231,0.00305176,0.0271606,-0.0439453,0.0341797,0.0454712
56,2,0.0100708,0.0360107,0.0369263,0.0311279,0.0354004,0.00732422,0.0262451,0.0448608,0.0308228,0.0106812,-0.0393677,0.0372314,0.0360107
56,3,0.017395,0.0216675,0.0112915,0.0244141,0.0314331,0.00762939,0.0189209,0.0198364,0.010376,0.0140381,-0.0430298,0.0512695,0.0195312
56,4,0.0210571,0.0244141,0.0186157,0.0250244,0.0186157,0.0726318,0.0125122,0.0244141,0.0204468,0.0280762,-0.0280762,0.0485229,0.0323486
57,0,0.0515747,-0.0143433,0.0274658,0.0158691,0.0375366,0.0112915,0.0210571,0.0692749,0.0177002,0.0222778,-0.039978,0.0302124,0.0387573
57,1,0.0372314,0.0311279,0.0418091,0.0183105,0.0296021,0.00701904,0.0164795,0.0125122,0.0140381,0.0268555,-0.0158691,0.0231934,0.0341797
57,2,0.0247192,0.0460815,0.0192261,-0.0305176,0.0469971,0.0201416,0.0128174,0.0323486,0.00152588,0.0228882,-0.0247192,0.0256348,0.0271606
57,3,0.0454712,0.0262451,0.027771,0.0180054,0.0234985,0.0219727,0.050354,0.0238037,0.010376,0.0216675,-0.0302124,0.0387573,0.0180054
57,4,0.0320435,0.020752,0.0463867,0.0210571,0.0234985,0.0201416,0.0195312,0.0112915,0.00427246,0.0238037,-0.00457764,0.0265503,0.0177002
58,0,0.017395,0.0244141,0.0241089,0.00549316,0.0247192,0.0112915,0.00976562,-0.00457764,0.0109863,0.0259399,-0.0247192,0.0393677,0.0601196
58,1,0.0454712,0.0332642,0.0170898,0.0262451,0.00244141,0.0134277,0.015564,0.0180054,0.0170898,0.0131226,-0.0305176,0.0247192,0.0354004
58,2,-0.0088501,0.0289917,0.0332642,0.0296021,0.00213623,0.000610352,0.00732422,0.00305176,0.0012207,0.0189209,-0.0262451,0.0515747,0.0363159
58,3,0.0289917,0.0390625,0.0238037,0.0332642,0.0112915,0.0234985,0.0769043,0.00335693,0.0250244,0.0689697,-0.0479126,0.0357056,0.0354004
58,4,0.0299072,0.00946045,0.0305176,0.0210571,0.00793457,0.0256348,-0.0146484,0.00457764,0.010376,0.0234985,-0.0222778,-0.0128174,0.0445557
59,0,0.0231934,0.0271606,0.0088501,0.0244141,0.0280762,-0.0259399,0.0170898,0.017395,-0.0292969,0.00549316,-0.0170898,0.0418091,0.0268555
59,1,0.0161743,0.00244141,0.0180054,0.0228882,0.022583,0.0308228,0.0109863,0.00183105,0.000610352,0.0164795,-0.0228882,0.0631714,0.0378418
59,2,0.0131226,0.0265503,0.0167847,0.0332642,0.0146484,-0.0195312,0.0201416,0.012207,0.0183105,0.00762939,-0.0311279,0.0411987,0.0274658
59,3,0.0485229,0.0299072,0.0183105,0.0363159,0.0308228,0.0268555,0.0180054,0.00549316,0.0448608,0.00793457,-0.0360107,0.0473022,0.0216675
59,4,0.045166,0.0247192,0.00854492,0.00457764,0.0283813,-0.0143433,0.0201416,0.0305176,0.0741577,0.0231934,-0.0296021,0.0561523,0.0369263
60,0,0.0375366,0.0317383,0.0137329,0.0228882,0.015564,0.0161743,0.0125122,0.0177002,0.0250244,0.0341797,-0.0311279,0.0289917,0.000610352
60,1,-0.00152588,0.0631714,0.03479,0.0259399,-0.0177002,0.0158691,0.0125122,0.012207,0.0411987,0.0167847,-0.0186157,0.0119019,0.0396729
60,2,0.00396729,0.0350952,0.0167847,0.0253296,-0.0588989,0.0201416,0.012207,0.0158691,0.0369263,0.0183105,-0.0326538,0.0137329,0.0372314
60,3,0.0204468,0.0247192,-0.00793457,0.0439453,-0.0430298,0.0921631,0.0186157,0.00396729,-0.0323486,0.0146484,-0.0332642,0.0360107,0.0375366
60,4,0.0186157,-0.0134277,0.0354004,0.0375366,-0.00152588,0.0210571,0.00732422,0.0262451,0.0143433,0.0210571,-0.0308228,0.00457764,0.0213623
61,0,0.000610352,0.0274658,0.0167847,0.0341797,-0.00915527,0.0332642,0.03479,-0.000305176,0.0378418,0.0137329,-0.0262451,-0.00183105,0.0198364
61,1,0.0222778,0.0366211,0.0302124,0.0234985,0.0289917,0.0299072,0.0106812,-0.00732422,0.0210571,0.0158691,0.00274658,0.0360107,0.0259399
61,2,0.0360107,0.0201416,0.0283813,0.0234985,0.090332,0.0350952,0.0289917,0.00701904,0.0189209,0.0265503,-0.0189209,0.0128174,0.0427246
61,3,0.0250244,0.0292969,0.0350952,-0.0204468,0.0869751,0.0482178,-0.00335693,0.0109863,0.0234985,0.0396729,-0.0222778,0.0408936,0.0302124
61,4,0.0231934,0.0280762,0.0112915,0.0289917,0.150757,0.0366211,-0.0131226,0.0216675,0.0485229,-0.020752,-0.0482178,0.0408936,0.0296021
62,0,0.0152588,0.0201416,0.0317383,-0.000610352,0.118713,0.00640869,0.0238037,0.0152588,0.0241089,0.0268555,-0.0302124,0.0421143,0.0335693
62,1,0.0256348,0.0460815,0.0201416,0.0357056,0.0872803,0.00579834,0.00640869,0.0189209,0.0137329,0.0366211,-0.0286865,0.0418091,0.0283813
62,2,0.0183105,0.032959,0.00305176,0.0341797,0.0390625,-0.0408936,0.012207,-0.000610352,0.0100708,0.0292969,-0.0204468,0.0466919,0.0238037
62,3,-0.0436401,0.0311279,0.0186157,0.0256348,0.0326538,0.0115967,0.0189209,0.00244141,0.00976562,0.0234985,0.00244141,0.0378418,0.0268555
62,4,0.0265503,0.027771,0.0231934,0.0213623,0.0500488,0.0204468,0.0262451,0.0115967,-0.00427246,0.0296021,-0.0265503,0.0234985,0.0860596
63,0,0.0387573,0.0271606,0.0369263,0.0311279,0.0234985,0.039978,0.0268555,0.0201416,0.00396729,0.0366211,-0.0305176,0.0671387,0.0332642
63,1,0.0286865,0.017395,0.0274658,0.0177002,0.0213623,0.00610352,0.0289917,0.0228882,0.0189209,0.022583,-0.0195312,-0.0180054,0.0350952
63,2,0.0180054,-0.00488281,0.0216675,0.0216675,0.0186157,0.0131226,0.0375366,0.0109863,0.00671387,0.0408936,-0.0280762,0.0183105,0.0115967
63,3,0.0192261,0.0390625,0.0308228,0.0201416,0.0286865,0.0216675,0.0271606,0.0128174,0.027771,0.0137329,-0.0198364,0.0418091,0.0292969
63,4,0.015564,0.0210571,0.0210571,0.055542,0.022583,0.0161743,0.0231934,-0.0195312,0.0222778,0.00396729,-0.0210571,0.0241089,0.0411987
64,0,0.0357056,0.0305176,0.0186157,0.0271606,0.0262451,0.0204468,0.0177002,0.0296021,0.00549316,0.0161743,-0.0164795,0.0320435,0.00244141
64,1,0.0335693,-0.00488281,0.0415039,0.0271606,0.0268555,0.0189209,0.00396729,0.012207,0.00701904,0.0366211,-0.0158691,0.0421143,0.00762939
64,2,0.0814819,0.0378418,0.0262451,0.0167847,0.0222778,0.0125122,0.0177002,0.0308228,0.0189209,0.0286865,-0.0360107,0.0305176,0.0219727
64,3,-0.00640869,0.0250244,0.0411987,0.055542,0.0210571,0.0192261,-0.0439453,0.00854492,0.00549316,0.0524902,-0.0506592,0.0296021,0.0280762
64,4,0.0131226,0.0192261,0.0396729,0.0265503,0.0341797,0.0143433,0.0201416,0.0186157,0.00946045,0.0296021,-0.0167847,0.0238037,0.0170898
65,0,-0.0164795,0.0204468,0.0448608,0.0274658,0.0012207,0.010376,0.0262451,0.0631714,-0.000915527,0.0192261,-0.0149536,-0.00427246,0.0344849
65,1,-0.000305176,0.0454712,0.0198364,0.0286865,0.0244141,0.0125122,0.00152588,0.0158691,0.0784302,0.0186157,-0.0143433,-0.0387573,0.0576782
65,2,-0.0747681,0.0592041,0.0479126,-0.0250244,0.00946045,0.0259399,0.0326538,0.0143433,0.0119019,0.010376,-0.0192261,-0.0219727,0.0408936
65,3,-0.0341797,0.0375366,0.0708008,0.0335693,0.0308228,0.0473022,0.0189209,0.0143433,-0.0149536,0.00549316,-0.0143433,-0.0561523,0.0216675
65,4,-0.0457764,0.0292969,0.0161743,0.0332642,0.0418091,0.0274658,0.0308228,0.0219727,0.0198364,0.071106,-0.015564,0.0146484,0.0360107
66,0,-0.0350952,0.0302124,0.0167847,0.0186157,0.0274658,0.0238037,0.0289917,0.00366211,-0.00823975,0.0143433,-0.015564,0.00854492,0.0421143
66,1,-0.0454712,0.0320435,0.017395,0.0238037,0.0244141,0.0390625,-0.0326538,0.0183105,0.0177002,-0.0375366,-0.0189209,0.0317383,-0.0335693
66,2,0.0128174,0.032959,-0.00244141,0.0823975,0.0311279,0.00640869,0.0695801,0.00854492,0.010376,0.0787354,-0.0335693,0.0253296,0.0509644
66,3,-0.0286865,0.0476074,0.00671387,0.0424194,0.0448608,0.0354004,0.0115967,0.00640869,0.0735474,0.0140381,-0.00915527,0.0515747,0.0164795
66,4,0.0210571,0.027771,0.0250244,0.0216675,0.0204468,0.0283813,0.015564,0.0234985,0.0131226,0.0134277,-0.00396729,0.0357056,0.0152588
67,0,0.0335693,0.032959,-0.0363159,0.0344849,0.0231934,0.0274658,0.0128174,0.00976562,0.0183105,-0.0125122,-0.0115967,0.0317383,0.0317383
67,1,0.0222778,0.0183105,0.0286865,0.0314331,0.0384521,0.0274658,0.0152588,0.0152588,0.0198364,0.00701904,-0.00946045,0.0219727,0.0231934
67,2,0.0509644,0.0753784,0.00457764,0.0305176,0.0527954,0.0204468,0.0299072,0.0131226,0.0186157,-0.000305176,-0.0274658,0.0250244,0.0302124
67,3,0.0527954,-0.00427246,0.0271606,0.0372314,-0.00396729,0.0491333,0.0256348,0.0119019,0.00183105,0.00396729,-0.0125122,0.0308228,0.0210571
67,4,0.0744629,-0.0115967,0,0.0265503,0.027771,0.0198364,0.0143433,0.0192261,0.020752,-0.00488281,-0.0164795,0.00946045,0.0210571
68,0,0.0820923,0.0256348,-0.027771,0.00671387,0.0396729,-0.0161743,0.0131226,0.0180054,0.0238037,0.00427246,-0.0180054,0.0436401,0.0396729
68,1,0.085144,0.0137329,0.0323486,0.0259399,0.0854492,0.0234985,0.0192261,0.0527954,-0.0106812,0.00701904,-0.0177002,0.0280762,0.0253296
68,2,0.0967407,0.0271606,0.0390625,0.0369263,0.0360107,0.0183105,0.0231934,0.00244141,0.0128174,0.0125122,0.00396729,0.0286865,0.00610352
68,3,0.0946045,0.0234985,0.0088501,0.0442505,0.0143433,0.0238037,-0.00183105,0.0183105,0.0012207,0.00915527,-0.0198364,0.0158691,0.0274658
68,4,0.0454712,0.0274658,0.0296021,0.0253296,-0.00640869,0.0354004,0.039978,0.022583,0.00152588,0.00213623,-0.00946045,0.0247192,0.0234985
69,0,0.0482178,0.00152588,0.0323486,0.0262451,0.0265503,0.0402832,0.0195312,0.00274658,-0.00701904,0.00976562,-0.017395,0.0317383,0.0152588
69,1,0.0488281,0.0332642,0.0436401,0.0463867,-0.00183105,0.0369263,0.0268555,-0.0213623,-0.0012207,-0.00793457,-0.0115967,0.000305176,0.0204468
69,2,0.0219727,0.0354004,0.0283813,0.0366211,-0.0106812,0.0265503,0.0128174,-0.00244141,0.0259399,0.00366211,-0.0213623,-0.0384521,0.0286865
69,3,0.00946045,0.0289917,0.0305176,0.0323486,0.00823975,0.0485229,0.0213623,-0.0241089,0.00640869,-0.00366211,-0.022583,0.0210571,0.0915527
69,4,0.0112915,0.0231934,0.0238037,0.0280762,0.0164795,0.0561523,-0.00244141,0.00274658,0.020752,0.00946045,-0.0140381,0.0161743,0.0112915
70,0,0.0137329,0.0323486,0.0265503,0.0360107,0.0363159,0.0598145,0.0305176,0.0216675,0.0119019,0.0183105,-0.0186157,0.00244141,0.0390625
70,1,-0.00244141,0.0262451,0.0375366,0.0253296,0.067749,0.0186157,0.0234985,-0.00762939,0.0161743,0.072937,-0.00152588,0.0152588,0.0186157
70,2,0.00274658,0.0311279,0.03479,0.0302124,0.108948,-0.00671387,0.0457764,0.0109863,0.0137329,0.027771,-0.0189209,0.0210571,0.0524902
70,3,0.00213623,0.0326538,0.0183105,0.0369263,0.0930786,0.00457764,0.0219727,0.00854492,0.0418091,0.0323486,-0.00793457,0.00427246,0.0213623
70,4,0.0320435,0.0372314,0.0115967,0.0421143,0.0817871,0.0317383,0.0241089,-0.0134277,0.0146484,0.0430298,-0.0106812,0.038147,0.0177002
71,0,0.0942993,0.0180054,0.0170898,0.038147,0.0585938,0.0189209,-0.0134277,-0.00732422,0.03479,0.0390625,-0.0274658,0.0164795,0.0299072
71,1,0.0411987,0.020752,0.0317383,0.0366211,0.0326538,0.108032,0.0366211,-0.0125122,0.0796509,0.0283813,-0.0152588,0.0531006,0.0167847
71,2,0.0296021,0.0350952,0.0234985,0.032959,0.0756836,0.0311279,0.032959,0.0561523,0.0350952,0.0308228,-0.0332642,0.0210571,0.0305176
71,3,0.0286865,0.0231934,0.0234985,0.045166,0.0408936,0.015564,0.0494385,0.0869751,0.0320435,0.0363159,-0.0109863,0.027771,0.0198364
71,4,0.00183105,-0.00213623,0.0231934,0.0390625,0.00732422,0.0161743,0.0360107,0.0473022,0.00305176,0.0201416,0.00976562,0.0296021,0.0253296
72,0,-0.00793457,0.0299072,0.0292969,0.0262451,-0.114746,0.0405884,0.0424194,0.062561,0.0247192,0.0286865,-0.0152588,0.0228882,0.0216675
72,1,0.0149536,0.0262451,0.0134277,0.03479,-0.045166,0.0271606,0.0439453,0.0683594,0.00762939,0.00549316,-0.0186157,-0.00213623,0.050354
72,2,0.0100708,0.045166,0.027771,0.027771,-0.0494385,0.0268555,0.0360107,0.0582886,0.0112915,0.0222778,-0.0463867,-0.0134277,0.0320435
72,3,-0.00396729,0.0256348,0.0610352,0.0369263,-0.0476074,-0.00579834,0.0338745,0.0268555,0.0259399,0.0198364,-0.0137329,0.0283813,0.0228882
72,4,0.000305176,0.0158691,0.0271606,0.0292969,-0.0463867,0.0601196,0.0524902,0.0158691,0.012207,-0.0256348,-0.0354004,0.0128174,0.0302124
73,0,0.0137329,0.0488281,-0.0344849,0.0332642,-0.0234985,0.0930786,0.0210571,0.0213623,-0.017395,0.015564,-0.00976562,0.0619507,0.0256348
73,1,0.000305176,0.0204468,0.0286865,0.0488281,-0.0369263,0.0418091,0.0296021,0.0167847,0.0244141,0.0299072,-0.00915527,0.0259399,0.0189209
73,2,0.010376,0.0253296,0.0256348,0.0326538,-0.0360107,0.0369263,0.0476074,0.0424194,0.022583,-0.00335693,-0.00671387,0.0280762,0.0482178
73,3,0.0183105,0.0283813,0.0241089,0.0219727,-0.00762939,0.0302124,0.0350952,0.072937,0.0344849,0.027771,-0.0265503,0.0146484,0.0402832
73,4,0.0112915,0.0244141,0.0463867,0.0289917,-0.0222778,0.0299072,0.0561523,0.0592041,0.0366211,0.0158691,-0.0234985,0.0219727,0.0265503
74,0,0.00274658,0.0170898,0.0405884,0.0332642,-0.0744629,0.0424194,0.0460815,0.0723267,0.032959,0.0210571,-0.0262451,0.0158691,0.0314331
74,1,0.00518799,0.0128174,0.0256348,0.0314331,-0.020752,-0.0115967,0.0418091,0.0274658,0.0372314,0.0305176,-0.0250244,0.022583,0.0100708
74,2,0.0177002,0.00305176,0.0222778,0.0369263,-0.0302124,0.027771,0.0378418,0.0601196,0.0164795,0.032959,-0.0302124,0.0152588,0.0476074
74,3,0.000915527,0.0198364,0.0350952,0.0271606,-0.0326538,0.0610352,0.0286865,0.0299072,0.0622559,0.0134277,-0.0112915,0.0219727,0.0149536
74,4,0.00610352,0.00610352,0.0274658,0.0149536,-0.0518799,0.0140381,0.0292969,0.0302124,0.0210571,0.0253296,-0.0161743,0.0430298,0.0161743
75,0,0.0146484,0.0671387,0.0332642,0.0311279,-0.078125,0.0357056,0.0216675,0.0323486,0.0210571,0.0357056,-0.0192261,0.0299072,0.0161743
75,1,0.0198364,0.0134277,0.0320435,0.0186157,-0.0317383,0.0296021,0.0234985,0.0384521,0.0201416,0.0289917,-0.0149536,0.0445557,0.0161743
75,2,0.0112915,0.00366211,0.0146484,0.0216675,0.0192261,0.0350952,0.0335693,0.027771,0.0125122,0.0378418,-0.0323486,0.0100708,0.022583
75,3,0.0637817,0.017395,0.0314331,0.0897217,0.0457764,0.0384521,0.101318,0.0231934,0.0164795,0.00213623,-0.0170898,0.0354004,-0.0210571
75,4,0.0131226,0.00915527,0.0100708,0.0192261,0.038147,0.0335693,0.0292969,0.0167847,0.00610352,0.00946045,-0.0442505,0.0170898,0.0317383
76,0,0.012207,0.0140381,0.0253296,0.0164795,0.0128174,0.0372314,0.0213623,0.0311279,0.00549316,0.0228882,-0.0491333,0.00213623,0.0210571
76,1,-0.000305176,0.0180054,0.0448608,0.0250244,0.055542,0.0265503,0.0323486,0.0592041,0.0247192,-0.00183105,-0.050354,-0.00762939,0.0247192
76,2,0.00518799,-0.0112915,0.0231934,0.0390625,0.0759888,0.0552368,0.0457764,0.0811768,0.0469971,0.022583,-0.0317383,0.00549316,0.0134277
76,3,0.0750732,0.0241089,0.027771,0.0762939,0.0524902,0.0469971,-0.0170898,0.0158691,0.0326538,0.017395,-0.0241089,0.0158691,0.0152588
76,4,0.0216675,0.0292969,0.0424194,0.0088501,0.0588989,0.0448608,0.0256348,0.0213623,0.0238037,0.0115967,-0.0186157,0.0158691,0.0283813
77,0,0.00976562,0.0268555,0.0177002,0.0106812,0.0415039,-0.0128174,0.0292969,0.00854492,0.0350952,0.0592041,-0.0164795,0.0274658,-0.0228882
77,1,0.015564,0.0314331,0.0158691,0.0192261,0.0518799,0.0314331,0.0378418,0.0231934,0.0378418,0.0158691,-0.015564,-0.00152588,0.0128174
77,2,0.103455,0.0186157,0.0213623,-0.0283813,0.0396729,0.0268555,0.0476074,0.00244141,0.0344849,-0.0128174,-0.0213623,0.0164795,0.0158691
77,3,-0.0317383,0.0106812,0.0259399,0.0604248,0.0311279,0.0256348,0.0228882,0.0164795,0.0268555,0.0112915,-0.032959,0.0106812,0.0189209
77,4,0.00457764,0.0634766,0.0247192,0.022583,-0.0125122,0.0299072,0.0338745,0.0204468,0.0271606,0.027771,-0.0158691,-0.00335693,0.0115967
78,0,0.0198364,0.0177002,0.0164795,0.0186157,0.039978,0.0149536,0.0292969,0.0323486,-0.0338745,0.017395,-0.0228882,0.0463867,0.0088501
78,1,0.000610352,0.0247192,0.0360107,0.0250244,0.0390625,0.0466919,0.039978,0.0531006,0.0131226,0.0106812,0.0241089,-0.0167847,0.0177002
78,2,0.0149536,0.0234985,0.0463867,0.0112915,0.0537109,0.062561,0.0460815,0.0405884,0.00579834,0.0170898,-0.0158691,-0.00854492,0.0210571
78,3,0.0323486,0.0192261,0.00854492,0.0268555,0.0421143,0.0314331,0.0357056,0.0164795,0.0238037,0.00549316,-0.0296021,-0.0115967,-0.00701904
78,4,0.0222778,0.0256348,0.0384521,0.0228882,0.0436401,0.0683594,0.0262451,0.0265503,0.0228882,0.0253296,-0.00823975,0.0115967,0.0180054
79,0,0.0201416,0.0637817,0.00244141,0.0149536,0.0183105,0.0167847,0.045166,-0.0149536,0.0146484,0.0152588,-0.0143433,0,0.0088501
79,1,0.0189209,0.00488281,0.00946045,0.0222778,-0.00152588,0.0369263,0.0335693,0.00762939,0.00701904,0.00549316,-0.0186157,0.00946045,0.0161743
79,2,-0.00610352,0.0161743,0.0146484,0.0219727,0.0280762,0.0317383,0.0216675,0.0305176,0.0292969,0.0286865,-0.0112915,-0.00244141,-0.00213623
79,3,-0.00274658,0.0335693,-0.00396729,0.012207,0.0311279,0.0323486,0.0323486,0.03479,0.0299072,0.010376,-0.0292969,0.010376,0.0234985
79,4,0.00762939,0,0.015564,0.0198364,0.027771,0.0350952,0.0384521,0.0344849,0.0201416,0.0238037,-0.00976562,0.0234985,0.0201416
80,0,-0.0631714,0.010376,0.012207,-0.0350952,0.0427246,0.0216675,0.0338745,0.0109863,0.00518799,0.0186157,-0.0100708,0.0234985,0.0231934
80,1,0.010376,0.00305176,0.00427246,0.0183105,0.0283813,0.0299072,0.0198364,0.0283813,0.0177002,0.0256348,-0.0491333,0.0308228,0.0262451
80,2,0.0106812,0.0228882,0.0170898,0.0454712,0.0311279,0.0305176,0.0170898,0.0314331,0.0189209,0.0332642,-0.0537109,0.0253296,0.0134277
80,3,0.0241089,0.0317383,-0.000610352,0.0131226,0.0497437,0.0341797,0.0274658,0.0457764,0.0338745,0.0357056,-0.0296021,0.0158691,0.012207
80,4,0.0262451,0.0180054,0.0186157,0.0213623,0.0335693,0.0241089,0.0286865,0.0283813,0.0317383,0.0643921,-0.00701904,0.0170898,-0.0299072
81,0,0.0143433,0.0210571,0.017395,0.0180054,0.0454712,-0.00671387,0.0244141,0.0299072,0.0259399,0.0152588,-0.0250244,0.0088501,0.0201416
81,1,0.0222778,0.0152588,0.0192261,0.0283813,0.03479,0.0338745,0.0427246,0.038147,0.0219727,0.0170898,-0.0228882,0.0152588,0.0839233
81,2,0.0177002,0.0640869,0.00976562,0.0253296,0.0219727,0.0134277,0.0262451,-0.0350952,0.0265503,0.0289917,-0.0170898,0.0305176,0.00640869
81,3,0.00518799,0.0238037,0.0198364,0.0323486,0.03479,0.0479126,0.0234985,0.0231934,0.0250244,0.0149536,-0.0115967,0.0177002,0.0125122
81,4,-0.00671387,0.0106812,0.0119019,0.0619507,0.0213623,0.0360107,0.010376,0.0186157,0.0228882,0.0424194,-0.0253296,0.0231934,0.00946045
82,0,0.0354004,0.0292969,0.0177002,0.0189209,-0.00427246,0.0473022,0.0360107,0.0247192,0.027771,0.0231934,-0.0137329,0.0271606,0.0140381
82,1,0.0384521,0.0222778,-0.000610352,0.022583,0.0396729,0.0460815,0.0186157,0.0238037,0.0247192,0.0164795,-0.0286865,0.0112915,0.00762939
82,2,0.0289917,0.0134277,0.0128174,0.0253296,0.0332642,0.0341797,-0.022583,0.0256348,0.0292969,0.0784302,-0.020752,0.0311279,-0.0463867
82,3,0.0143433,-0.000915527,-0.00946045,0.0152588,0.0424194,0.0335693,0.0296021,0.022583,0.0881958,0.0241089,-0.0332642,-0.0289917,0.0152588
82,4,0.0271606,0.0198364,-0.0131226,0.0198364,0.0234985,0.03479,0.0247192,0.0231934,0.0231934,0.0204468,-0.0152588,0.0305176,0.039978
83,0,0.0314331,0.0167847,0.0137329,0.0195312,0.0320435,0.0183105,0.0231934,0.0262451,0.0247192,0.0326538,-0.0244141,0.00793457,0.0134277
83,1,0.0271606,-0.0100708,0.010376,0.0192261,0.0100708,0.00183105,0.0314331,0.0448608,0.0299072,0.0234985,-0.0231934,0.0311279,0.0134277
83,2,0.0112915,0.0128174,0.0143433,0.012207,0.0338745,0.0189209,0.0375366,0.0341797,0.0323486,0.0177002,-0.0421143,0.0143433,0.00976562
83,3,-0.0543213,0.00762939,0.00396729,0.0256348,0.0485229,0.00518799,0.0531006,0.039978,0.0439453,0.00915527,-0.0137329,0.0192261,0.022583
83,4,0.0289917,-0.00549316,0.0259399,0.0143433,0.00366211,0.0244141,0.0408936,-0.0119019,0.0195312,0.0241089,-0.022583,0.0170898,0.022583
84,0,0.0213623,0.00213623,0.00823975,0.0250244,0.0482178,0.0177002,0.0506592,0.0457764,0.0442505,0.0286865,-0.038147,0.0253296,0.015564
84,1,0.0384521,0.00549316,0.00976562,-0.0109863,0.0613403,0.0125122,-0.0387573,0.0582886,0.0323486,-0.010376,-0.012207,0.00946045,0.0131226
84,2,0.017395,0.00610352,0.0183105,0.0088501,0.0119019,0.0314331,0.0311279,0.0640869,0.0186157,0.0320435,-0.0177002,0.0186157,0.0177002
84,3,0.0137329,-0.00793457,0.0119019,0.0274658,0.0219727,0.0326538,0.038147,0.0698853,0.0323486,0.0308228,-0.0149536,0.0088501,0.0180054
84,4,0.0543213,0.0143433,0.00854492,0.00518799,0.045166,0.0360107,-0.0250244,0.0479126,0.0396729,-0.0100708,-0.0186157,0.00579834,-0.0012207
85,0,0.0177002,0.0106812,0.0167847,0.0149536,0.0158691,0.0332642,0.038147,0.0375366,0.0131226,0.0317383,-0.0234985,0.00915527,0.0134277
85,1,0.0140381,0.00915527,0.0268555,0.0216675,0.00274658,-0.032959,0.0338745,0.0457764,0.0323486,0.0372314,-0.0286865,0.0180054,0.00915527
85,2,0.0332642,0.017395,0.0564575,0.0161743,0.00274658,0.0161743,0.0167847,0.017395,0.0228882,0.0323486,-0.0146484,0.0234985,0.0189209
85,3,0.0296021,0.012207,0.00427246,0.0119019,-0.015564,0.0146484,0.0299072,-0.0012207,0.0430298,0.015564,-0.0366211,0.0415039,0.0109863
85,4,0.0262451,0.0247192,0.0442505,0.0210571,-0.0357056,0.0283813,0.0149536,-0.0231934,0.0167847,0.017395,0.000305176,0.0271606,0.0149536
86,0,0.0354004,0.00732422,0.0186157,0.0360107,-0.0695801,0.0170898,0.0259399,0.00427246,0.0350952,-0.000305176,-0.0326538,0.0296021,0.0320435
86,1,0.0302124,0.0106812,0.0244141,0.00488281,-0.0897217,0.0390625,0.015564,-0.0280762,0.017395,0.0177002,-0.0289917,0.0259399,0.00457764
86,2,0.0286865,-0.00366211,0.0308228,0.0134277,-0.0836182,0.0234985,0.0189209,0.0540161,0.0299072,0.0222778,-0.0192261,0.0201416,0.00305176
86,3,0.022583,0.000305176,0.00488281,0.0152588,-0.0384521,0.0253296,0.032959,0.0311279,0.0354004,0.0274658,-0.0259399,0.0405884,-0.0088501
86,4,0.0244141,0.027771,0.0143433,0.0219727,-0.022583,0.043335,0.022583,0.0405884,0.00427246,0.0219727,-0.0183105,0.0650024,0.00183105
87,0,0.0219727,0.0088501,-0.0396729,0.0167847,-0.0354004,0.0247192,0.0222778,0.0518799,0.0341797,0.0375366,-0.0210571,0.0253296,0.0741577
87,1,0.0115967,-0.0344849,0.00732422,0.0326538,-0.0561523,0.022583,0.0280762,-0.00396729,0.0357056,0.0112915,-0.0262451,0.0231934,0.0164795
87,2,0.0723267,0.00732422,0.00701904,-0.0146484,-0.0274658,0.0311279,0.00671387,0.0518799,0.0204468,-0.0161743,-0.057373,0.0256348,-0.0262451
87,3,0.0497437,0.0158691,0.00610352,0.0375366,-0.0256348,0.0210571,0.0222778,0.0405884,0.0274658,0.0366211,-0.0424194,0.0213623,0.0109863
87,4,-0.0125122,0.00274658,0.0216675,0.0128174,-0.0408936,0.0231934,0.0283813,0.0613403,0.0439453,0.0299072,-0.0137329,0.0259399,0.00793457
88,0,0.043335,0.00915527,0.00823975,0.0204468,0.138245,0.0143433,0.0271606,0.0283813,0.0302124,0.0509644,-0.0247192,0.0372314,0.0109863
88,1,0.0222778,0.0442505,0.000610352,0.010376,0.109558,0.0250244,0.043335,-0.00366211,0.0274658,0.0442505,-0.0286865,0.0259399,0.020752
88,2,0.0289917,0.0143433,0.00396729,0.00518799,0.0634766,0.0152588,0.0131226,0.00488281,0.0543213,0.00793457,-0.027771,0.0344849,-0.0167847
88,3,0.0210571,0.0100708,0.0012207,0.0149536,0.0012207,0.0143433,0.0299072,-0.00946045,0.0283813,0.0283813,0.0152588,0.022583,0.0131226
88,4,0.0259399,0.0161743,0.0286865,-0.0442505,0.0631714,0.0164795,-0.0238037,0.00640869,0.0299072,0.0241089,-0.0369263,0.00976562,0.0408936
89,0,0.027771,0.0106812,0.022583,0.00518799,0.043335,0.0213623,0.0274658,0.0537109,0.0314331,0.0253296,-0.0244141,0.0317383,0.012207
89,1,0.0396729,0.0259399,0.0308228,0.0201416,0.0323486,0.0143433,0.0134277,0.0482178,0.03479,0.0292969,-0.0292969,0.0167847,0.0189209
89,2,0.0241089,0.0164795,0.0128174,0.0213623,0.0363159,0.0769043,0.0402832,0.0469971,0.0500488,0.0286865,-0.0238037,0.0222778,0.0326538
89,3,0.0299072,0.00610352,-0.0219727,0.0253296,0.0326538,-0.00244141,0.0335693,0.0512695,0.0262451,0.0454712,-0.0387573,0.0317383,0.0189209
89,4,0.078125,0.00152588,0.0210571,0,0.0231934,0.0244141,-0.0289917,0.0421143,0.0265503,0.00518799,0.00183105,0.0317383,0.0561523
90,0,0.0338745,0.000915527,0.0216675,0.00610352,0.0350952,0.0244141,0.0320435,0.0543213,0.0921631,0.0357056,-0.0317383,0.0509644,0.0234985
90,1,0.0332642,0.0134277,0.0146484,-0.00671387,0.0119019,0.0210571,0.0610352,0.0424194,0.0259399,0.0332642,-0.0250244,0.0149536,0.0140381
90,2,0.00549316,-0.0012207,0.0332642,0.00549316,0.0405884,0.0238037,0.0231934,0.0146484,0.0344849,0.0436401,0.00518799,0.00946045,0.0158691
90,3,0.000915527,0.0125122,0.0292969,0.0253296,0.0180054,0.00274658,0.0234985,0.0268555,0.0320435,0.0350952,-0.0302124,0.0201416,0.0228882
90,4,0.00244141,0.0265503,0.118408,0.0192261,0.0244141,-0.0479126,0.0216675,0.0234985,0.0106812,0.0177002,-0.0326538,-0.062561,0.0308228
91,0,0.00732422,0.0445557,0.0210571,0.0302124,0.0314331,-0.00244141,0.0250244,0.0509644,0.0131226,0.0262451,-0.0332642,-0.0164795,0.0387573
91,1,0.0143433,0.0280762,0.0543213,0.00213623,0.00976562,0.0088501,0.0332642,0.0234985,0.0283813,0.0222778,-0.0228882,0.0238037,0.0152588
91,2,0.0357056,0.010376,0.0241089,0.0271606,0.0363159,0.0238037,0.00976562,0.0552368,0.0204468,0.0238037,-0.0302124,0.0396729,0.0259399
91,3,0.0308228,0.0161743,0.00762939,0.0198364,0.0286865,-0.000305176,0.015564,0.0262451,0.0335693,0.00762939,-0.0259399,0.0576782,0.0341797
91,4,-0.0195312,0.0164795,-0.00732422,0.0613403,0.0210571,0.0125122,0.0265503,0.0515747,0.0259399,0.0244141,-0.0534058,0.0393677,0.0357056
92,0,0.0131226,0.0134277,-0.0494385,0.0183105,0.0204468,0.00518799,0.0192261,0.0128174,0.0375366,0.0189209,-0.0164795,0.0338745,0.0296021
92,1,0.0341797,-0.00823975,-0.017395,0.0180054,0.0317383,0.00671387,0.0234985,0.0195312,0.0201416,0.0250244,-0.000610352,0.0372314,0.017395
92,2,0.0231934,0.0247192,-0.0219727,-0.00396729,0.0460815,0.020752,0.0219727,0.0473022,0.0241089,0.0222778,-0.027771,0.0180054,0.0128174
92,3,0.0222778,0.0088501,0.0125122,0.0167847,0.0369263,-0.00732422,0.0408936,0.0170898,0.0354004,0.0106812,-0.0350952,0.0241089,0.00823975
92,4,0.0204468,0.0241089,-0.00427246,0.0186157,0.0463867,0.00335693,0.0219727,0.020752,0.0488281,0.0195312,-0.0146484,0.0350952,0.0186157
93,0,0.0106812,0.0292969,0.00823975,0.00976562,0.0222778,0.00671387,-0.00701904,0.0219727,0.0311279,0.0152588,-0.0259399,0.0308228,0.00793457
93,1,0.00946045,0.0210571,0.00213623,0.0292969,0.0238037,-0.00152588,0.00701904,0.0192261,0.0408936,0.0161743,-0.0262451,0.0311279,0.0210571
93,2,-0.0167847,0.0296021,0.00762939,0.0140381,0.0250244,0.0149536,0.0140381,-0.012207,-0.0271606,0.0308228,-0.00457764,0.010376,0.0262451
93,3,-0.0482178,0.0146484,0.0350952,0.0268555,0.0259399,-0.00854492,0.0195312,0.020752,0.020752,0.038147,-0.0250244,0.0387573,0.0350952
93,4,-0.0540161,0.0292969,0.0238037,0.0186157,0.0234985,-0.0320435,0.0216675,0.0241089,0.0820923,0.022583,-0.0320435,0.039978,0.00366211
94,0,-0.0363159,0.0134277,0.0222778,0.0238037,0.0292969,0.0167847,0.00305176,0.0250244,0.0320435,0.00823975,-0.0311279,0.0268555,0.0109863
94,1,-0.085144,0.0143433,-0.0088501,0.0183105,0.0140381,0.0344849,0.022583,0.0143433,0.0183105,0.0238037,-0.0326538,0.015564,0.0286865
94,2,-0.0708008,0.00366211,0.0292969,0.0357056,0.0332642,0.0259399,-0.0143433,0.0363159,0.0213623,0.0283813,-0.0338745,0.0402832,0.0201416
94,3,-0.067749,0.0180054,0.038147,0.0253296,0.0296021,0.0253296,0.0338745,-0.0109863,0.00488281,0.022583,0.00640869,0.0189209,0.0454712
94,4,0.0189209,0.0170898,0.0158691,0.0775146,0.0253296,0.00579834,-0.0396729,0.0231934,0.0466919,0.0668335,-0.0616455,0.0332642,0.0222778
95,0,0.0241089,0.0152588,0.0311279,0.0158691,0.0479126,0.000915527,0.0341797,0.012207,0.038147,0.0308228,-0.0360107,0.0344849,0.0271606
95,1,0.0186157,0.032959,0.03479,0.0289917,0.0189209,0.00488281,0.038147,0.0180054,0.0317383,0.032959,-0.0234985,0.027771,0.0302124
95,2,0.0494385,0.0088501,0.012207,0.0146484,0.0152588,0.0161743,0.0149536,0.0271606,0.0088501,0.0271606,-0.0286865,0.0265503,0.0292969
95,3,0.0210571,0.00762939,0.0405884,0.0210571,0.0189209,0.00610352,0.0170898,0.0286865,0.0231934,0.0238037,0.0152588,0.00854492,0.0241089
95,4,0.135803,0.0213623,0.0314331,0.0088501,0.0204468,-0.0488281,0.0314331,0.0140381,0.0640869,0.0219727,-0.0238037,0.0234985,0.0186157
96,0,0.090332,0.0134277,0.0527954,0.0640869,0.032959,0.00762939,-0.0445557,0.0311279,0.0402832,0.0344849,-0.0177002,-0.0268555,0.0161743
96,1,0.140686,0.0283813,0.038147,0.0524902,0.0396729,0.0140381,0.0134277,0.00427246,0.0280762,0.0354004,-0.0228882,-0.0170898,0.0244141
96,2,0.0585938,0.0442505,0.0396729,-0.0210571,0.0180054,0.0195312,-0.0350952,0.0125122,0.0332642,0.038147,-0.0170898,0.0299072,0.0140381
96,3,0.117188,0.0405884,0.0250244,0.0128174,0.020752,0.0149536,0.0357056,0.012207,0.0274658,0.0564575,-0.0292969,0.0280762,-0.00244141
96,4,0.113525,0.0454712,0.0979614,0.0323486,0.0283813,0.0262451,0.00823975,0.00701904,0.0296021,0.0247192,-0.0311279,0.0201416,0.0311279
97,0,0.140686,0.0344849,0.00396729,0.0201416,0.043335,0.0134277,0.0161743,0.00946045,0.0234985,0.0241089,-0.0473022,0.0506592,0.0152588
97,1,0.126038,0.0357056,0.00213623,0.00976562,0.0292969,0.0268555,0.00976562,0.0183105,0.0213623,0.0265503,-0.0283813,0.0372314,0.0350952
97,2,0.105896,0.0106812,0.00396729,0.0201416,0.0317383,0.0109863,0.0012207,0.010376,0.0100708,0.0338745,-0.027771,0.0299072,0.0280762
97,3,0.0848389,0.0320435,0.010376,0.0198364,0.0198364,0.0265503,0.0219727,0.0106812,0.0213623,0.0308228,-0.0238037,0.0271606,0.0296021
97,4,0.0787354,0.0473022,-0.00152588,0.0216675,0.0482178,0.0308228,0.0164795,-0.00396729,0.0323486,0.0149536,-0.0238037,0.0274658,0.0390625
98,0,0.0540161,0.0384521,0.00823975,0.0152588,0.0308228,-0.00152588,0.0164795,0.00366211,-0.000610352,-0.00488281,-0.0296021,-0.0308228,0.0286865
98,1,0.0619507,0.038147,0.0759888,0.0186157,0.022583,0.0695801,0.00366211,-0.0012207,-0.0378418,0.0262451,-0.0265503,0.0708008,0.0204468
98,2,0.0485229,0.0949097,0.0189209,0.0158691,0.0686646,0.0253296,0.00427246,0.0344849,0.0241089,0.0332642,-0.0308228,0.0344849,0.0338745
98,3,0.0384521,0.039978,0.012207,0.0271606,-0.00366211,0.00152588,0.0576782,0.00427246,0.0100708,0.0140381,-0.0357056,0.0387573,0.0262451
98,4,0.020752,0.0527954,0.0286865,0.0177002,-0.0158691,-0.0158691,0.0143433,0.00488281,0.0210571,0.0241089,-0.0402832,0.0350952,0.0317383
99,0,0.0231934,0.0228882,0.0143433,0.06073,-0.0167847,0.00152588,0.00671387,0.0186157,0.0192261,0.0250244,-0.0274658,0.0363159,0.0143433
99,1,0.0244141,0.0183105,0.0231934,0.00732422,-0.0140381,-0.0219727,0.0146484,-0.000915527,0.0338745,0.0167847,-0.0296021,0.0384521,0.0198364
99,2,0.022583,0.0561523,0.0259399,0.0177002,0.0592041,0.000915527,0.0265503,0.0195312,0.0286865,0.0305176,-0.0363159,0.0384521,0.03479
99,3,0.0198364,0.0216675,0.022583,0.0280762,-0.032959,-0.0219727,0.0158691,0.0372314,0.0286865,0.0296021,-0.0299072,0.0445557,0.0308228
99,4,0.027771,0.020752,0.0326538,0.0149536,-0.0701904,-0.000610352,0.0384521,0.0427246,0.0469971,-0.0335693,-0.0531006,0.0344849,0.020752
100,0,0.0183105,0.0189209,0.020752,0.0152588,-0.0619507,0.00976562,0.0128174,0.0436401,0.0152588,0.0320435,-0.0442505,0.0497437,0.0320435
100,1,0.0115967,0.0326538,0.0195312,0.0280762,-0.0534058,0.00457764,0.0942993,0.0369263,0.0158691,-0.0335693,-0.0363159,0.0341797,0.0219727
100,2,0.0585938,0.0540161,0.0427246,-0.0335693,-0.015564,0.0137329,0.0195312,0.0466919,0.0131226,0.0198364,-0.027771,0.0183105,0.0183105
100,3,0.0268555,0.0286865,0.0317383,0.00183105,0.0360107,0.0131226,0.0250244,0.0161743,0.0213623,0.0189209,-0.0341797,0.0341797,-0.0292969
100,4,0.020752,0.0387573,0.0384521,0.0125122,0.0540161,0.00732422,0.0125122,0.0341797,0.0259399,0.0137329,-0.0335693,0.0302124,0.0146484
101,0,0.0125122,0.0338745,0.0283813,0.0219727,0.0823975,0.0238037,0.017395,0.0308228,-0.027771,0.0195312,-0.0283813,-0.0195312,0.0411987
101,1,0.00518799,0.0375366,0.0247192,0.0326538,0.154419,0.012207,0.0231934,0.0213623,0.0265503,0.0213623,-0.038147,0.0393677,0.0305176
101,2,0.0149536,0.0320435,0.0262451,0.0115967,0.147095,0.0515747,0.0292969,0.0183105,0.0146484,0.0241089,-0.0320435,0.0314331,0.0231934
101,3,0.0213623,0.0375366,0.0366211,0.0296021,0.159302,0.00335693,0.0259399,0.00518799,0.0146484,0.0244141,-0.0286865,0.0405884,0.0354004
101,4,0.0228882,0.0411987,0.0286865,0.00213623,0.088501,-0.00518799,0.0213623,0.0131226,0.0259399,0.0198364,-0.032959,0.0552368,0.0228882
102,0,0.0183105,0.0314331,0.0137329,0.00549316,0.0604248,0.038147,0.0204468,-0.00610352,0.0402832,0.0106812,-0.0320435,0.0326538,0.039978
102,1,0.0201416,0.0378418,0.032959,0.0357056,0.0360107,0.0250244,0.0112915,0.00671387,0.0198364,0.027771,-0.0363159,0.039978,0.0424194
102,2,0.0280762,0.0390625,0.0350952,0.0253296,0.0387573,0.0177002,0.0164795,0.00457764,0.00732422,0.027771,-0.0369263,0.0344849,0.0323486
102,3,0.0360107,0.0344849,0.0375366,0.0219727,0.0231934,0.0180054,0.00976562,0.00183105,0.00976562,0.0326538,-0.0311279,0.0280762,0.043335
102,4,0.0167847,0.0222778,0.0234985,0.0302124,0.0622559,0.0140381,-0.0265503,0.0283813,0.0140381,-0.0164795,-0.0424194,0.0332642,0.0378418
103,0,0.0772095,0.022583,0.0201416,0.027771,0.03479,0.0164795,0.022583,0.0109863,0.00366211,0.0457764,-0.0317383,0.012207,0.0289917
103,1,0.0210571,0.020752,-0.00976562,0.0216675,0.032959,0.0143433,0.0213623,0.00671387,0.050354,0.0314331,-0.0216675,0.0372314,0.0326538
103,2,0.0369263,0.0262451,0.0390625,0.0326538,0.0421143,0.0195312,0.0262451,0.015564,0.0213623,0.0292969,-0.0402832,0.0442505,0.0448608
103,3,0.020752,0.0335693,0.032959,0.0265503,0.0149536,0.0183105,0.0119019,0.0363159,0.022583,0.0299072,-0.0308228,0.0384521,0.0314331
103,4,-0.0256348,0.022583,0.0357056,0.0259399,0.0299072,0.0741577,0.017395,0.00549316,0.0128174,0.0344849,-0.0338745,0.0201416,0.043335
104,0,-0.0845337,0.0247192,0.0442505,0.0341797,0.00854492,0.0216675,0.012207,0.00549316,0.0320435,0.00396729,-0.0335693,0.0393677,0.045166
104,1,-0.0845337,0.0643921,0.0369263,0.0286865,0.0820923,0.0134277,0.012207,-0.039978,0.0265503,0.0283813,-0.0292969,0.0296021,0.038147
104,2,-0.127869,0.0320435,0.0485229,0.0302124,0.0119019,0.0387573,0.00915527,-0.00213623,0.00915527,0.0357056,-0.0213623,0.0637817,0.0830078
104,3,-0.131226,0.0387573,0.0292969,-0.0271606,0.00976562,0.0375366,0.022583,0.00579834,0.022583,0.0268555,-0.0231934,0.0650024,0.0372314
104,4,-0.141602,0.0271606,0.0793457,0.0302124,0.0106812,0.0183105,0.0115967,0.00793457,0.0112915,0.0253296,-0.0131226,0.0540161,0.0350952
105,0,-0.128174,0.0332642,0.0686646,0.0256348,-0.00427246,0.0411987,0.0216675,0.0143433,0.0262451,0.0253296,-0.0234985,0.0427246,0.0222778
105,1,-0.0198364,0.0302124,0.0408936,0.0350952,-0.00640869,0.0234985,0.012207,0.00854492,0.0250244,0.0100708,-0.0189209,0.012207,0.0415039
105,2,0.105286,0.0308228,0.0439453,0.0280762,0.0219727,0.00976562,0.0125122,0.0106812,0.00946045,0.0186157,-0.065918,0.0534058,0.0390625
105,3,0.116272,0.0317383,0.0543213,0.0262451,0.00671387,-0.0201416,0.0234985,0.00640869,-0.00305176,0.0253296,-0.032959,-0.00488281,0.0323486
105,4,0.154419,0.0183105,0.0457764,0.0283813,0.012207,0.0262451,0.0219727,0.0115967,0.00946045,0.0134277,-0.020752,0.0723267,0.0262451
106,0,0.195618,0.0283813,0.0466919,0.0259399,0.0372314,0.0268555,0.0222778,-0.00762939,0.0143433,0.0170898,-0.0106812,0.0421143,0.0283813
106,1,0.111694,0.0305176,0.0512695,0.0454712,0.0442505,0.0360107,-0.0112915,-0.00427246,-0.0228882,0.0088501,-0.0231934,-0.0137329,0.0247192
106,2,-0.0109863,0.0747681,0.0259399,0.0247192,-0.00183105,0.0250244,0.0177002,0.0256348,0.0109863,0.0204468,-0.0189209,-0.0259399,0.0317383
106,3,-0.0311279,-0.0100708,0.0268555,0.0164795,0.00915527,0.0280762,0.0289917,-0.00732422,0.010376,0.0100708,-0.0326538,0.0271606,0.0405884
106,4,-0.0415039,0.0271606,0.0170898,0.0506592,0.0402832,0.0204468,0.0268555,0.0265503,0.0161743,0.0109863,-0.0588989,0.0515747,0.0393677
107,0,0.0219727,0.0170898,0.0427246,0.0164795,0.0436401,0.0241089,0.0320435,0.0210571,-0.00152588,0.0439453,-0.0305176,0.0576782,0.027771
107,1,-0.0494385,0.0317383,0.0445557,0.0671387,0.022583,0.0115967,0.0201416,-0.00518799,0.00244141,0.00854492,-0.0180054,0.0558472,0.0384521
107,2,-0.0256348,0.0326538,0.0531006,0.0491333,0.0292969,0.0115967,0.0216675,0.0106812,0.0363159,0.0131226,-0.0274658,0.0338745,0.0250244
107,3,0.057373,0.0479126,0.0286865,0.0665283,0.0393677,0.0372314,0.0204468,0.00244141,0.0219727,0.0137329,-0.0241089,-0.0219727,0.0286865
107,4,0.168762,0.0570679,0.0665283,0.0405884,-0.0180054,0.0332642,0.0152588,0.0201416,0.000305176,0.0109863,-0.00183105,-0.0411987,0.0314331
108,0,0.118103,0.0460815,0.0628662,0.0317383,0.0198364,0.0164795,0.0158691,0.00854492,0.010376,0.0134277,-0.0271606,-0.0216675,0.0292969
108,1,0.170288,0.0469971,0.0454712,0.0213623,0.022583,0.0750732,0.0125122,0.00488281,-0.0384521,-0.00335693,-0.0421143,0.0494385,0.0384521
108,2,0.140686,0.0387573,0.0222778,0.0262451,0.0387573,0.015564,0.0192261,-0.0201416,0.00946045,0.00152588,-0.0283813,0.0387573,0.0259399
108,3,0.157471,0.0262451,-0.0109863,0.0375366,0.0317383,0.0326538,0.0216675,0.0213623,0.0219727,-0.000915527,-0.0314331,0.0180054,0.0805664
108,4,0.133972,0.038147,-0.0296021,-0.0296021,0.0262451,0.0131226,0.0177002,0.00762939,0.0378418,0.0012207,-0.0234985,0.0317383,0.0326538
109,0,0.134888,0.0439453,-0.0378418,0.0354004,0.0292969,0.0421143,0.0201416,-0.0228882,-0.00915527,-0.0146484,-0.0158691,0.020752,0.0286865
109,1,0.140686,-0.00915527,-0.0311279,0.0238037,-0.00671387,0.0283813,0.00701904,0.0601196,0.0137329,0.010376,-0.0198364,0.0231934,0.0241089
109,2,0.13092,0.00427246,0.00549316,0.0213623,0.0271606,0.0466919,0.0177002,0.0250244,-0.00244141,0.00366211,-0.0289917,0.03479,0.0219727
109,3,0.12207,0.0390625,0.00823975,0.0314331,0.0567627,0.0131226,0.0231934,0.0247192,0.0149536,0.00213623,-0.0128174,0.020752,0.0158691
109,4,0.114746,0.03479,0.00640869,0.00762939,0.0274658,0.0164795,0.0387573,0.0180054,0.0137329,0.00732422,-0.027771,0.0222778,0.0332642
110,0,0.118713,0.0302124,-0.0170898,0.00823975,0.0302124,0.0442505,0.00579834,0.0268555,0.0494385,-0.0088501,-0.0250244,0.0610352,0.0418091
110,1,0.119019,0.0585938,0.0308228,0.0256348,0.0164795,0.0137329,0.0219727,0.017395,0.0317383,0.00335693,-0.0610352,0.0146484,0.0268555
110,2,-0.000610352,0.0210571,0.0231934,0.0317383,0.0259399,0.0326538,0.0259399,0.0109863,0.0164795,0.00793457,-0.0198364,0.0375366,0.0305176
110,3,-0.0012207,0.0357056,0.032959,0.0250244,0.000915527,0.0314331,0.0167847,0.067749,0.0177002,0.00732422,-0.0180054,0.0265503,0.043335
110,4,-0.0247192,0.00610352,0.022583,0.0201416,0.0390625,0.0234985,0.0259399,0.0250244,0.0140381,-0.00915527,-0.0210571,0.0360107,0.0338745
111,0,-0.0149536,0.0164795,0.0283813,0.0765991,0.0326538,0.0213623,0.0796509,0.0177002,0.0216675,0.0366211,-0.0198364,0.0183105,0.0247192
111,1,-0.03479,0.017395,0.0265503,0.0308228,0.0338745,0.0357056,0.0146484,0.0112915,0.0164795,-0.0222778,-0.0317383,0.020752,0.0271606
111,2,-0.0308228,-0.0106812,0.0296021,0.0234985,0.0561523,0.0366211,0.0549316,0,0.0125122,0.0183105,-0.0250244,0.0341797,0.022583
111,3,-0.0564575,-0.0326538,0.0259399,0.0332642,0.0393677,0.0268555,0.0234985,0.0320435,0.020752,0.0311279,-0.0302124,0.0314331,0.0289917
111,4,-0.00701904,0.0115967,0.0186157,0.0360107,0.0314331,0.0408936,-0.0143433,0.0100708,0.0152588,-0.00427246,-0.0323486,0.0299072,0.062561
112,0,0.0424194,0.022583,0.0210571,0.0186157,0.0576782,0.0271606,0.0210571,-0.0390625,0.0198364,0.0210571,0.00366211,0.0280762,0.0268555
112,1,0.0253296,0.0143433,0.027771,0.03479,0.0280762,0.0244141,0.0137329,0.00854492,0.072937,0.0500488,-0.0152588,-0.0140381,0.0415039
112,2,0.0177002,0.0170898,0.00946045,0.0308228,0.0445557,0.0369263,0.0204468,0.00762939,0.0125122,0.0402832,-0.0204468,0.0274658,0.0320435
112,3,0.0689697,0.0161743,0.0314331,-0.0183105,0.0466919,0.0262451,0.0671387,0.00610352,0,-0.0375366,-0.0222778,0.0115967,0.0500488
112,4,0.0106812,0.0308228,-0.0180054,0.0387573,0.0320435,0.0216675,0.0283813,0.00488281,0.015564,0.0344849,-0.012207,0.0274658,0.0439453
113,0,0.0100708,0.0106812,0.0112915,0.0860596,0.0408936,0.0137329,0.0274658,0.0231934,0.0222778,0.00366211,-0.0149536,0.0238037,0.0390625
113,1,0.00305176,0.0469971,0.0265503,0.03479,0.0280762,0.0228882,0.0253296,-0.0012207,0.0228882,0.0164795,-0.022583,0.0241089,0.0338745
113,2,0.00793457,0.0332642,0.0198364,0.0271606,0.0366211,0.0115967,0.0238037,0.0198364,0.0128174,0.0274658,-0.00823975,0.0476074,0.0256348
113,3,0.000915527,0.0836182,0.0299072,0.0256348,-0.0213623,0.0210571,0.0338745,0.0146484,0.0143433,0.0286865,-0.0265503,0.0515747,0.00549316
113,4,-0.000915527,0.0427246,0.039978,0.0363159,0.0653076,0.00396729,0.0280762,0.0274658,0.0186157,0.0167847,0.00640869,0.0521851,0.0308228
114,0,0.012207,0.012207,0.0360107,0.0289917,0.0222778,0.0231934,0.0326538,0.0119019,-0.00213623,0.0268555,-0.00823975,0.0152588,0.027771
114,1,-0.00305176,0.0228882,0.0521851,0.020752,0.0421143,0.0485229,0.0164795,0.032959,-0.00396729,0.0335693,-0.0247192,0.022583,0.0180054
114,2,-0.0653076,0.0112915,0.0302124,-0.022583,0.0457764,0.0238037,0.0308228,0.00732422,-0.0244141,0.00305176,-0.00671387,0.0231934,0.0247192
114,3,0.00183105,0.0149536,0.0405884,0.0216675,0.0601196,0.0405884,0.0228882,0.00366211,-0.00488281,0.0268555,-0.0283813,0.0170898,0.0100708
114,4,-0.0164795,0.00579834,0.0366211,0.0289917,0.0418091,0.0521851,0.0357056,0.0244141,0.00671387,0.038147,-0.0479126,0.0192261,0.0198364
115,0,-0.000610352,-0.0012207,0.0289917,0.0387573,0.032959,0.0350952,0.0360107,0.00793457,0.00335693,0.0427246,-0.0198364,0.0357056,0.0320435
115,1,-0.0228882,-0.000915527,0.0326538,0.0405884,0.0411987,0.0369263,0.0262451,0.00823975,0.010376,-0.0296021,-0.00946045,0.0430298,-0.00549316
115,2,-0.0491333,0.0186157,0.0405884,0.0363159,0.0439453,0.0350952,0.00396729,-0.0140381,0.0274658,0.0231934,-0.0149536,0.0476074,0.0268555
115,3,-0.105896,-0.00183105,0.0323486,0.0302124,0.0469971,0.0308228,0.0198364,-0.00335693,0.0308228,-0.020752,-0.0274658,0.067749,0.057373
115,4,-0.139465,0.00640869,0.0418091,0.0424194,0.0326538,0.0241089,0.0161743,0.017395,0.0265503,0.0280762,-0.00549316,0.0537109,0.0357056
116,0,-0.16571,0.0125122,0.0402832,0.0421143,0.0265503,0.0213623,0.0311279,-0.00640869,0.038147,0.0286865,-0.0253296,0.0250244,0.0482178
116,1,-0.167236,0.0180054,0.0338745,0.0253296,0.0244141,0.00701904,0.0231934,0.0314331,0.039978,0.0311279,0.0216675,0.00518799,0.0378418
116,2,-0.0991821,0.0286865,0.0421143,0.0244141,0.00854492,0.0259399,0.0411987,0.0109863,0.0369263,0.0256348,-0.0241089,-0.0805664,0.0262451
116,3,-0.0579834,0.0537109,0.0350952,0.0158691,-0.00610352,-0.000915527,0.0283813,0.0265503,0.0354004,0.0164795,-0.00946045,-0.0384521,0.0201416
116,4,0.022583,0.0494385,0.0515747,0.00946045,-0.0360107,0.0283813,0.0296021,0.0354004,0.0320435,0.0158691,-0.0164795,-0.0488281,0.0497437
117,0,0.0567627,0.0424194,0.0772095,0.0256348,-0.0234985,-0.0189209,0.045166,0.0540161,0.0317383,0.0323486,-0.0213623,-0.0119019,0.0228882
117,1,0.0280762,0.0393677,0.0378418,0.00488281,0.00701904,0.0311279,0.0735474,0.0418091,0.0387573,0.00213623,-0.0314331,-0.0106812,-0.00701904
117,2,0.0622559,-0.0253296,0.0115967,0.0228882,0.0289917,0.0372314,0.032959,0.0253296,0.0402832,0.0247192,-0.0134277,0.0283813,0.0253296
117,3,-0.00305176,0.0137329,0.0109863,0.0537109,0.0238037,0.0204468,0.0686646,0.0253296,0.0320435,0.0088501,-0.0534058,0.0869751,-0.0338745
117,4,-0.00335693,0.00183105,-0.0134277,0.0366211,0.0115967,0.0326538,0.0506592,0.0396729,0.0305176,0.022583,-0.00671387,0.0872803,0.0378418
118,0,-0.0265503,0.00610352,-0.00976562,0.0161743,0.065918,0.0311279,0.0341797,0.0286865,0.00671387,0.0152588,-0.0360107,0.0799561,0.0247192
118,1,-0.0552368,-0.00549316,-0.0143433,0.0219727,0.100403,0.043335,0.0372314,0.0405884,0.0247192,0.00640869,0.0012207,0.0878906,0.0323486
118,2,-0.0286865,-0.00488281,-0.00549316,0.0338745,0.0701904,0.027771,0.0540161,-0.0106812,0.0106812,0.0396729,-0.00701904,0.105286,0.00793457
118,3,-0.00793457,-0.0012207,0.0128174,0.0363159,0.065918,0.0378418,0.0100708,0.0170898,-0.00396729,-0.0460815,-0.00213623,0.114746,0.0231934
118,4,0.103149,0.00213623,0.0204468,0.0384521,0.0521851,0.0262451,0.0250244,0.0332642,-0.0259399,0.0259399,-0.0100708,0.123596,0.0357056
119,0,0.124207,0.0189209,0.0515747,0.0344849,0.0341797,0.0167847,0.0241089,0.0372314,0.0137329,0.0183105,-0.045166,0.0714111,0.0195312
119,1,0.135498,-0.00305176,0.0515747,0.0372314,0.0411987,0.0119019,0.0296021,0.0137329,-0.0256348,0.0219727,-0.0195312,-0.0189209,0.015564
119,2,0.171204,0.0253296,0.0610352,0.0332642,0.0253296,0.0271606,0.0338745,0.022583,0.0128174,0.0262451,-0.0137329,-0.0357056,0.0183105
119,3,0.141296,0.0170898,0.0772095,0.00915527,0.0286865,0.0314331,0.0402832,0.0198364,0.0231934,0.0393677,-0.00823975,-0.0976562,0.0250244
119,4,0.0430298,0.0427246,0.0643921,0.039978,0.0424194,0.0326538,0.0354004,0.0354004,0.0241089,0.0161743,-0.0234985,-0.102234,0.0714111
120,0,0.0570679,0.0454712,0.0363159,0.0750732,0.0253296,0.0231934,0.0463867,0.017395,0.0201416,0.0473022,-0.0283813,-0.0921631,-0.0424194
120,1,0.0494385,0.0332642,0.0537109,0.0360107,0.0134277,0.088501,0.0308228,0.00396729,0.0445557,0.00823975,-0.017395,-0.102844,0.0262451
120,2,0.0137329,0.0360107,-0.00549316,0.0283813,0.0509644,0.0421143,0.0299072,0.0292969,0.0283813,0.00762939,0.00427246,-0.128479,0.015564
120,3,0.0244141,0.0012207,-0.03479,0.0314331,0.0341797,0.0247192,0.0234985,0.0241089,0.0234985,0.0408936,-0.0250244,-0.0854492,0.00427246
120,4,-0.00274658,0.022583,-0.0247192,0.0238037,0.0393677,0.0598145,0.0338745,0.0158691,0.0115967,0.0161743,-0.0195312,-0.0537109,0.00732422
121,0,-0.0567627,0.0228882,-0.0518799,0.0262451,0.0338745,0.0439453,0.0204468,0.0201416,-0.00610352,0.0167847,-0.0189209,-0.0189209,0.00793457
121,1,0.00579834,0.0366211,-0.0271606,0.00488281,0.0238037,-0.0405884,0.010376,0.032959,0.0274658,0.0259399,-0.0222778,0.0189209,0.0311279
121,2,0.00762939,0.0360107,-0.0253296,0.0311279,0.0146484,0.0476074,0.072937,0.039978,0.0271606,0.0112915,-0.0152588,0.00518799,0.0311279
121,3,0.00396729,0.0393677,0.00488281,0.0405884,0.0378418,0.0338745,0.0372314,0.000305176,0.032959,0.00915527,-0.0357056,0.0119019,0.0384521
121,4,-0.0128174,0.0170898,0.00640869,0.0265503,0.0274658,0.0332642,0.0445557,0.020752,0.0192261,-0.00915527,-0.0158691,-0.00305176,0.0241089
122,0,0.0317383,0.0488281,0.00946045,0.0137329,0.0259399,0.00213623,0.0268555,0.0369263,-0.00274658,0.0131226,0.00701904,0.0106812,0.0112915
122,1,0.0863647,0.0280762,0.0112915,0.0195312,-0.00946045,0.032959,0.0326538,-0.00457764,0.0289917,0.0112915,0.0164795,0.0192261,0.0146484
122,2,0.038147,0.0308228,0.012207,0.0234985,0.0112915,0.0372314,0.0424194,0.0216675,0.017395,0.0222778,-0.0534058,0.00183105,0.0134277
122,3,0.0332642,0.0149536,0.0167847,0.0357056,0.0274658,0.0308228,0.0357056,0.0195312,-0.00457764,0.010376,0.0112915,0.00732422,0.0192261
122,4,0.0305176,0.0134277,0.00640869,0.0195312,0.0268555,0.0332642,0.0305176,0.0012207,0.0131226,-0.00610352,-0.0244141,0.00396729,-0.0369263
123,0,0.0213623,0.0192261,0.0137329,0.0271606,0.0247192,0.00793457,0.0408936,0.0238037,-0.000610352,0.0378418,-0.0311279,0.015564,0.00427246
123,1,-0.0482178,0.0439453,0.0149536,-0.045166,0.0192261,0.0259399,-0.0164795,0.0183105,0.0112915,0.0161743,-0.022583,0.00671387,0.0158691
123,2,0.00213623,0.0170898,0.00183105,0.0332642,0.0250244,0.0201416,0.0305176,0.0256348,0.0189209,0.0228882,-0.0149536,0.0509644,0.00579834
123,3,0.032959,0.00335693,-0.0335693,0.0204468,0.0180054,-0.0317383,0.0305176,0.0186157,-0.0390625,0.0408936,-0.0195312,0.038147,-0.000610352
123,4,0.0271606,0.0137329,0.0296021,0.0213623,0.0283813,0.0231934,0.0323486,0.0283813,0.0305176,-0.0112915,-0.027771,0.0442505,-0.010376
124,0,0.00793457,0.0222778,-0.0354004,0.0311279,0.0189209,0.0305176,0.03479,0.0167847,0.0189209,0.0253296,-0.0100708,0.038147,0.0195312
124,1,-0.00976562,0.0152588,0.012207,0.0158691,0.0250244,0.0231934,0.0283813,0.0326538,0.03479,0.00335693,-0.0128174,0.0268555,0.0289917
124,2,0.03479,0.0430298,0.00915527,0.0323486,0.0149536,0.0231934,0.0338745,0.0161743,0.0213623,0.00640869,-0.0204468,-0.020752,0.0271606
124,3,0.0836182,0.0152588,0.0158691,0.0250244,0.0292969,0.0271606,0.0234985,0.0213623,0.0213623,0.0198364,-0.0204468,0.0442505,0.0241089
124,4,0.0805664,0.0338745,-0.000610352,0.0115967,0.0308228,0.017395,0.0476074,0.0299072,0.0170898,0.010376,-0.0280762,0.0369263,0.010376
125,0,0.0369263,0.0216675,0.0106812,0.0497437,0.0012207,0.0210571,-0.0100708,0.0195312,0.0161743,0.0613403,-0.022583,0.0494385,0.017395
125,1,-0.00732422,0.0161743,0.0228882,-0.0012207,0.0140381,0.0390625,0.0497437,0.0274658,0.0186157,0.0228882,-0.0234985,0.0476074,0.0140381
125,2,0.00335693,0.0201416,0.0262451,0.0140381,0.0088501,0.0305176,0.0320435,0.022583,-0.0219727,0.0283813,-0.0192261,0.0253296,0.022583
125,3,-0.0143433,-0.000610352,0.0152588,0.00915527,0.0338745,0.0286865,0.0473022,0.0317383,0.0109863,-0.0289917,-0.0189209,-0.00152588,0.0610352
125,4,0.0247192,0.0128174,0.0308228,0.0183105,0.00244141,0.0244141,0.0213623,0.0378418,0.0149536,0.0363159,-0.0164795,0.00488281,0.0204468
126,0,-0.0372314,0.0143433,-0.00793457,0.0128174,0.00854492,0.0598145,0.022583,0.0366211,0.104065,0.0198364,-0.0234985,-0.000915527,0.0259399
126,1,0.00518799,-0.00305176,0.0247192,0.0106812,0.0100708,0.0247192,0.0192261,0.039978,0.0140381,0.0283813,-0.0222778,0.0201416,0.0131226
126,2,-0.0637817,0.0161743,0.0201416,-0.00152588,0.0192261,0.0180054,0.0256348,-0.0189209,0.0299072,0.03479,0.0244141,0.0241089,0.0192261
126,3,-0.0692749,0.00335693,0.0210571,-0.00762939,-0.00518799,0.0256348,0.0408936,0.027771,0.0219727,0.0231934,-0.0177002,0.0482178,0.00396729
126,4,-0.0561523,0.00183105,0.0299072,0.0146484,0.0250244,0.038147,0.0335693,0.00396729,0.0354004,0.0405884,-0.0115967,0.0344849,0.0119019
127,0,-0.136414,-0.00213623,0.0198364,0.0222778,0.0314331,0.0164795,0.00396729,0.0265503,0.0192261,0.0201416,-0.0323486,0.0396729,0.0372314
127,1,-0.175171,0.0112915,0.0378418,0.0201416,0.0466919,0.0317383,0.0320435,0.0204468,0.0701904,0.0137329,-0.0350952,0.0485229,0.0265503
127,2,-0.140991,0.0210571,0.0177002,0.0112915,0.0714111,0.0256348,0.0421143,0.0280762,0.0219727,0.00793457,-0.0296021,0.022583,0.0344849
127,3,-0.0985718,0.020752,0.0256348,0.0112915,0.0421143,0.00274658,0.0213623,0.0323486,0.0204468,0.03479,-0.0228882,0.00427246,0.0442505
127,4,-0.0753784,0.0274658,0.0292969,0.0198364,0.0152588,0.038147,0.0216675,0.0384521,0.0283813,0.0238037,-0.0268555,0.0442505,0.0140381
128,0,0.0424194,0.0360107,-0.0228882,0.0100708,0.0152588,0.0149536,0.0210571,0.0396729,0.0161743,0.0247192,-0.0357056,-0.0186157,-0.00793457
128,1,0.194397,0.0320435,0.0283813,0.0125122,0.0250244,-0.0332642,0.0238037,0.0317383,-0.0244141,0.039978,-0.0198364,0.0106812,0.0177002
128,2,0.265808,0.0634766,-0.0332642,0.0128174,0.0289917,-0.0180054,0.0204468,0.0308228,-0.00183105,0.0259399,-0.0302124,0.0302124,0.0189209
128,3,0.246277,0.0738525,0.00518799,-0.000305176,-0.0430298,0.0375366,0.0366211,0.0378418,0.0253296,0.0354004,-0.0228882,0.010376,0.00823975
128,4,0.244141,0.0341797,-0.00488281,0.0238037,0.0137329,0.0143433,0.038147,0.0314331,0.0299072,0.0201416,-0.0228882,-0.00427246,-0.0222778
129,0,0.15625,0.0189209,-0.0106812,0.00640869,0.0161743,0.0314331,0.0335693,-0.0128174,0.0289917,0.0405884,0.00366211,0.00640869,0.0149536
129,1,0.155334,0.0299072,0.00579834,0.0180054,0.00854492,0.0244141,0.00854492,0.0265503,0.0177002,0.0280762,-0.0320435,-0.00244141,0.0164795
129,2,0.143433,0.0634766,0.00640869,-0.00183105,0.0234985,0.0213623,0.0131226,-0.0411987,0.0213623,0.0335693,-0.0234985,0,0.0335693
129,3,0.0915527,-0.00610352,0,0.00244141,-0.00854492,0.0286865,0.0140381,0.0195312,0.0408936,0.0238037,-0.0299072,-0.0521851,0.00732422
129,4,0.0408936,0.0201416,0.0112915,0.0326538,-0.010376,0.0280762,0.0396729,0.010376,0.012207,0.0341797,-0.0289917,0.00274658,0.0759888
130,0,0.0515747,0.0186157,0.00854492,0.00366211,-0.020752,0.0479126,0.0146484,-0.0112915,0.0332642,0.0366211,-0.0292969,0.039978,-0.0228882
130,1,0.0424194,0.0448608,0.0115967,0.015564,-0.0302124,0.0268555,0.0152588,-0.0106812,0.0115967,0.0204468,-0.0170898,0.0366211,0.00946045
130,2,0.0332642,0.0106812,0.0119019,0.010376,-0.0439453,0.0265503,-0.0012207,0.0222778,0.0430298,0.0442505,-0.012207,0.0164795,0.0100708
130,3,0.0308228,0.022583,0.012207,0.0195312,-0.0460815,0.0314331,0.0317383,-0.0198364,0.0100708,0.0335693,-0.010376,0.00305176,-0.0012207
130,4,0.00732422,0.0238037,-0.00244141,-0.000305176,-0.0595093,0.0418091,0.0402832,0.0357056,0.0259399,0.0415039,-0.0387573,0.0140381,0.0643921
131,0,0.00854492,0.020752,0.0744629,0.0369263,-0.0640869,0.0457764,0.0476074,0.0320435,-0.0335693,0.0363159,-0.0146484,0.0708008,0.0112915
131,1,0.0125122,0.0106812,0.0109863,0.0210571,-0.0186157,-0.00213623,0.0283813,0.0369263,0.0372314,0.0494385,-0.0357056,0.0457764,0.0234985
131,2,0.0137329,0.0210571,0.0253296,0.0222778,-0.0170898,0.0231934,0.0219727,0.0430298,0.0747681,0.0445557,-0.0152588,0.0372314,0.0234985
131,3,-0.00152588,0.00366211,0.0363159,0.0158691,0.000610352,0.0286865,0.0656128,0.0811768,0.0299072,0.0424194,-0.0317383,0.0338745,-0.00915527
131,4,0.0341797,0.00518799,0.0167847,0.0271606,0.00335693,0.0106812,-0.0183105,0.0735474,0.0189209,0.00793457,-0.0564575,0.0509644,0.00152588
132,0,-0.0088501,0.0354004,-0.00274658,0.0134277,0.015564,0.0219727,0.0405884,0.0509644,0.0332642,0.0418091,-0.0436401,0.0405884,0.0289917
132,1,0.00854492,0.0143433,0.0149536,0.0238037,0.00640869,0.0210571,0.0149536,0.0430298,0.0283813,0.0256348,-0.022583,0.0259399,0.0665283
132,2,0.00183105,0.00640869,0.0350952,0.0115967,0.00396729,-0.0161743,0.0366211,0.0387573,0.0134277,0.0384521,-0.0302124,0.0634766,0.010376
132,3,0.0119019,0.0357056,0.0106812,0.0201416,0.0332642,0.0234985,0.0311279,0.0460815,0.0308228,0.039978,-0.0323486,0.0387573,0.0314331
132,4,0.00640869,0,0.00488281,0.0360107,0.0634766,0.0253296,0.0332642,0.0445557,0.0338745,0.0241089,-0.0372314,0.0369263,0.0134277
133,0,0.0357056,0.0177002,0.0219727,0.050354,0.0418091,0.0170898,0.0274658,0.0286865,0.0152588,0.0134277,-0.0216675,0.0405884,0.0164795
133,1,0.0131226,0.00701904,-0.000305176,0.00671387,0.0521851,0.0109863,0.0256348,0.0680542,0.0244141,0.0274658,-0.00915527,0.0411987,0.017395
133,2,-0.000915527,0.0283813,-0.0164795,-0.0100708,0.0405884,0.0848389,0.0234985,0.0314331,-0.0320435,0.0292969,-0.0250244,0.0430298,0.0161743
133,3,-0.0234985,0.0195312,0.00488281,0.0131226,0.0177002,0.0149536,0.0338745,0.0338745,0.0442505,0.0152588,-0.0238037,-0.0167847,0.0177002
133,4,-0.0540161,0.0393677,0.00823975,0.0201416,0.0201416,0.0158691,0.0213623,-0.00488281,0.0222778,0.0228882,-0.0189209,0.0189209,0.015564
134,0,-0.0628662,0.0180054,0.00701904,0.00854492,0.0204468,0.0244141,0.027771,0.0262451,0.0311279,0.0112915,-0.0308228,-0.0158691,0.0134277
134,1,-0.0674438,0.017395,0.0479126,0.0192261,0.0289917,0.0357056,0.0186157,0.0216675,0.0256348,0.0210571,-0.0299072,-0.0109863,0.0204468
134,2,-0.0787354,0.00762939,0.039978,0.00976562,0.0299072,0.0143433,0.0186157,0.00427246,0.0177002,0.0198364,-0.0115967,0.00793457,0.0234985
134,3,-0.0350952,0.0137329,0.0445557,0.0210571,0.012207,0.0177002,0.06073,0.0335693,0.0305176,-0.000610352,-0.0317383,0.00701904,0.00762939
134,4,-0.0292969,0.0280762,0.055542,0.00762939,0.0299072,0.0164795,0.03479,0.0305176,0.0177002,0.0326538,-0.022583,0.0280762,0.000305176
135,0,-0.0631714,0.0296021,0.0262451,0.0378418,0.017395,0.0189209,0.0134277,0.00366211,0.0189209,0.0314331,-0.017395,0.0372314,0.00915527
135,1,-0.0231934,0.03479,0.0448608,0.0283813,0.0164795,0.027771,0.0244141,0.0152588,0.03479,0.0201416,-0.0262451,0.0305176,0.0152588
135,2,0.015564,0.0250244,0.0271606,0.0234985,0.0271606,0.0424194,0.0158691,0.0247192,0.0784302,0.039978,-0.0234985,-0.00366211,0.0158691
135,3,0.0299072,0.0189209,0.00518799,0.0152588,0.0115967,0.0344849,0.0238037,0.0183105,0.015564,0.0262451,-0.0262451,0.0201416,0.0265503
135,4,0.0372314,0.00488281,-0.0219727,0.0228882,0.0140381,-0.0241089,0.0134277,0.0250244,-0.0250244,0.00457764,-0.0323486,0.0622559,0.00762939
136,0,0.0622559,-0.00854492,-0.0170898,0.012207,0.0201416,0.00579834,0.0183105,0.0216675,0.0332642,0.0247192,-0.020752,0.0543213,0.00946045
136,1,0.0131226,0.0164795,-0.0265503,0.0305176,-0.012207,0.0177002,0.0274658,-0.0268555,0.0265503,0.0253296,-0.0344849,0.0317383,0.0100708
136,2,-0.0457764,0.00671387,-0.0595093,0.012207,0.0140381,0.0247192,0.0183105,0.0189209,0.0250244,0.0320435,-0.0296021,0.0201416,0.0537109
136,3,-0.0747681,-0.020752,0.010376,0.0274658,0.00549316,0.0088501,0.0189209,0.00915527,0.0384521,0.0308228,-0.0262451,-0.00946045,0.0216675
136,4,-0.123901,-0.000610352,0.00793457,0.0170898,0.0149536,0.0228882,0.0140381,0.0161743,0.0317383,0.0366211,-0.0259399,-0.0314331,0.012207
137,0,-0.149231,0.00244141,-0.00640869,0.017395,0.0265503,0.0375366,0.0228882,0.0280762,0.0177002,0.0445557,-0.00793457,-0.0296021,0.0354004
137,1,-0.0360107,0.0253296,0.0149536,0.0695801,0.0106812,0.00915527,0.0231934,0.0308228,0.0317383,0.0360107,-0.038147,-0.0369263,0.0134277
137,2,0.137024,0.032959,0.0292969,0.0332642,0.0283813,0.00457764,0.00213623,0.017395,0.0274658,0.0454712,-0.0320435,0.00640869,0.00579834
137,3,0.164795,0.0463867,0.0350952,-0.00579834,0.0274658,0.0228882,0.00793457,0.0244141,0.0387573,0.0271606,-0.0341797,0.0195312,0.0119019
137,4,0.193787,0.0357056,0.0137329,0.0494385,0.03479,0.0146484,-0.0286865,0.0439453,0.0289917,0.0421143,-0.0384521,0.0411987,0.0140381
138,0,0.207214,0.0518799,0.0161743,0.012207,-0.012207,0.0338745,0.0500488,0.0375366,0.0262451,0.0424194,-0.0256348,0.0384521,0.00579834
138,1,0.209656,0.0222778,0.0213623,0.015564,0.0512695,0.0421143,0.0140381,0.010376,0.0280762,0.0259399,-0.039978,0.0540161,0.0210571
138,2,0.157776,0.00579834,0.0280762,0.0183105,0.0271606,0.015564,0.0134277,-0.000915527,0.020752,0.0323486,-0.0460815,0.0189209,0.0100708
138,3,0.0686646,0.0201416,0.0219727,0.0473022,0.0296021,0.00579834,0.0146484,0.00671387,0.0259399,0.0268555,-0.0714111,0.0753784,0.0149536
138,4,0.0854492,0.0265503,-0.00671387,0.00152588,0.0402832,0.0134277,0.022583,0.0164795,0.0448608,0.0775146,-0.0338745,0.0759888,-0.0402832
139,0,0.098877,-0.0119019,0.0253296,0.0167847,0.00274658,0.00579834,0.0140381,0.0268555,0.0405884,0.0341797,-0.0219727,0.0637817,0.0222778
139,1,0.0424194,-0.00366211,0.0289917,0.0198364,0.0262451,-0.0128174,0.0250244,0.0283813,-0.00183105,0.0360107,-0.0384521,0.0930786,0.00183105
139,2,0.00946045,-0.00732422,0.0131226,0.0296021,0.0219727,0.0149536,0.0137329,0.0360107,0.0317383,0.0296021,-0.0344849,0.107422,0.0308228
139,3,0.00305176,-0.0131226,0.0137329,0.0167847,0.0177002,0.0149536,0.0125122,0.0259399,0.0183105,0.0250244,-0.0323486,0.0915527,0.0253296
139,4,0.0012207,0.0115967,0.0186157,0.0262451,0.0177002,-0.000915527,0.0280762,0.0350952,0.03479,0.0186157,-0.0296021,0.149231,0.00946045
140,0,-0.0479126,0.000915527,0.0384521,0.0146484,0.0286865,0.0341797,0.0222778,0.0213623,0.0228882,0.0231934,-0.0280762,0.0497437,0.0338745
140,1,-0.0979614,-0.00183105,0.022583,0.0125122,0.0442505,0.00915527,0.0143433,0.03479,0.0299072,0.0326538,-0.0369263,0.10498,0.0256348
140,2,-0.0552368,0.0180054,0.0302124,0.0350952,0.000610352,0.00305176,0.0320435,0.0268555,0.0256348,0.0256348,-0.0241089,0.0622559,0.0283813
140,3,0.0341797,0.0115967,-0.0314331,0.0134277,0.0201416,-0.00457764,0.00549316,0.0183105,0.0250244,0.0314331,-0.0283813,0.0341797,0.0314331
140,4,0.0100708,0.00976562,0.0256348,0.0238037,0.0143433,0.0213623,0.0201416,-0.0131226,0.0125122,0.0344849,-0.0305176,-0.0131226,0.0210571
141,0,0.109863,0.0112915,0.032959,0.0671387,0.0241089,0.0125122,0.0527954,0.0302124,0.0311279,0.0735474,0.00823975,-0.0799561,0.0964355
141,1,0.109863,0.0234985,0.0320435,0.0012207,0.03479,0.0247192,-0.0335693,0.0210571,0.0137329,-0.0286865,-0.0292969,-0.0793457,0.0296021
141,2,0.12207,0.0619507,0.0292969,-0.0216675,0.0186157,0.0180054,0.0408936,0.0244141,0.0231934,0.0332642,-0.0299072,-0.0238037,0.0247192
141,3,0.110474,0.039978,0.0415039,-0.0134277,0.0192261,0.0115967,-0.0436401,0.0299072,0.0320435,0.0189209,-0.038147,0.0265503,0.032959
141,4,0.0494385,0.0250244,0.0366211,0.0247192,0.0408936,-0.00213623,0.0222778,0.0195312,0.0213623,0.0189209,-0.0201416,0.0250244,0.0222778
142,0,0.0701904,0.0112915,0.0119019,0.0180054,0.0311279,0.0146484,0.0265503,0.00549316,0.0161743,0.0125122,-0.0265503,0.0247192,0.0939941
142,1,0.0653076,0.0445557,-0.00335693,0.0378418,-0.0335693,0.0106812,-0.0158691,0.0204468,0.020752,0.0231934,-0.0244141,0.0137329,0.0332642
142,2,0.0238037,0.0274658,-0.0170898,0.0128174,0.0164795,-0.0170898,0.0177002,0.0360107,0.062561,-0.0170898,-0.0244141,0.0100708,0.0274658
142,3,0.00274658,-0.000610352,0.0238037,0.0299072,0.0280762,0.0204468,0.0219727,0.0183105,0.0213623,0.0186157,-0.0375366,0.0244141,0.0286865
142,4,-0.0479126,0.0189209,0.0222778,0.0299072,0.0213623,0.000305176,-0.00854492,0.0167847,0.0234985,0.038147,-0.0311279,0.0332642,0.022583
143,0,-0.0811768,0.00946045,0.0576782,0.010376,0.0344849,0.0222778,-0.000915527,0.0204468,0.0201416,0.0274658,-0.022583,0.0180054,-0.0482178
143,1,-0.0164795,0.0119019,0.0222778,0,0.0393677,0.0271606,0.0161743,0.0143433,0.0152588,0.0271606,-0.0228882,-0.0216675,0.027771
143,2,-0.0741577,0.0210571,0.0189209,0.0418091,0.0125122,0.00732422,0.015564,0.0280762,0.000915527,0.0344849,-0.0308228,-0.0314331,0.0445557
143,3,-0.00823975,0.0299072,0.0448608,0.065918,0.0198364,0.0247192,0.0186157,0.0201416,0.0140381,0.0244141,-0.0592041,-0.0140381,0.0411987
143,4,0.0500488,-0.0167847,0.03479,0.0177002,-0.0143433,0.038147,0.0216675,0.022583,0.0152588,0.017395,-0.0222778,-0.00976562,0.038147
144,0,0.120544,-0.0152588,0.0500488,0.0286865,0.00762939,0.027771,0.0106812,0.022583,0.0128174,0.0201416,-0.0384521,0.0805664,0.0268555
144,1,0.0997925,0.0616455,0.0387573,0.0387573,0.0375366,0.0198364,0.0201416,0.0100708,0.0134277,0.00305176,-0.0296021,0.0158691,0.020752
144,2,0.0805664,0.020752,0.0604248,0.0222778,0.0613403,0.0198364,0.010376,0.0363159,0.0234985,0.0112915,-0.0384521,0.00915527,0.0274658
144,3,0.0204468,0.0213623,0.057373,-0.0265503,0.0357056,0.00457764,0.0170898,0.0088501,0.00396729,0.0283813,-0.0289917,0.00671387,0.0476074
144,4,0.0558472,0.0247192,0.0320435,0.0274658,0.00976562,0.010376,0.0125122,0.0195312,0.0115967,0.0177002,-0.0253296,0.020752,0.0653076
145,0,0.065918,0.0283813,0.0228882,0.0213623,0.0234985,0.0253296,0.00305176,0.0164795,0.00610352,0.0210571,-0.062561,0.0231934,0.0384521
145,1,0.0454712,0.0320435,0.00518799,0.00671387,0.0210571,0.00518799,0.00701904,0.0195312,0.0119019,0.022583,-0.032959,0.00823975,0.0280762
145,2,0.0582886,0.0265503,0.00915527,0.0335693,0.00640869,0.0341797,0.0219727,0.0241089,0.010376,0.0250244,-0.0213623,0.0387573,0.0204468
145,3,0.0585938,0.0146484,0.0286865,0.0427246,0.0201416,0.0326538,-0.0323486,0.0210571,0.0106812,0.00427246,-0.0268555,0.0515747,0.0357056
145,4,0.0418091,0.0259399,0.00213623,0.0262451,0.0167847,0.0106812,-0.0115967,0.0222778,0.0244141,0.0558472,-0.0274658,0.0634766,0.0415039
146,0,0.0106812,0.0320435,0.0216675,0.0314331,0.00427246,0.0265503,0.0210571,0.0323486,0.00732422,0.0302124,-0.0357056,0.043335,0.0323486
146,1,0.0598145,0.020752,-0.0408936,0.0268555,0.0253296,0.0161743,-0.000915527,0.0192261,0.015564,0.0280762,-0.0219727,0.0323486,0.0241089
146,2,0.0210571,0.0302124,-0.0231934,0.0302124,0.0106812,0.0271606,0.0158691,0.0491333,-0.00701904,0.00915527,-0.00396729,0.0335693,0.0363159
146,3,0.0241089,0.0317383,0.00610352,0.0338745,0.0274658,0.00854492,0.0195312,-0.00762939,0.0210571,0.0234985,-0.0369263,-0.0274658,0.0234985
146,4,0.0164795,0.0323486,-0.00366211,0.00701904,0.0195312,-0.000915527,0.0222778,-0.000915527,0.0253296,0.0314331,-0.0314331,0.0427246,0.0308228
147,0,0.00305176,0.0216675,-0.00427246,0.0335693,0.0280762,0.027771,0.0238037,0.00823975,0.0149536,0.032959,-0.0201416,0.0396729,0.0527954
147,1,0.015564,0.0152588,0.0717163,0.0131226,0.0137329,0.0164795,0.012207,-0.00366211,0.0152588,0.0289917,-0.0201416,0.0473022,0.0366211
147,2,0.0509644,0.0250244,0.039978,-0.000610352,0.0119019,0.00671387,0.0143433,0.00518799,0.00762939,0.0396729,-0.0253296,0.032959,0.0396729
147,3,0.0259399,0.00183105,0.0393677,0.0302124,0.0234985,0.0280762,0.0128174,0.0442505,0.0180054,0.0534058,-0.0219727,0.038147,0.0262451
147,4,0.0100708,0.0234985,0.057373,0.032959,0.0326538,0.0100708,0.0256348,0.0201416,0.0256348,0.0515747,-0.0360107,0.0506592,0.0439453
148,0,0.0369263,-0.00152588,0.043335,0.0228882,-0.0106812,0.0213623,0.0305176,0.0582886,0.0140381,0.0466919,-0.0167847,0.0265503,0.0366211
148,1,-0.0308228,-0.0112915,0.0549316,0.0366211,0.0231934,0.0320435,0.0415039,0.00946045,0.0143433,0.0241089,-0.0286865,0.017395,0.0274658
148,2,-0.0369263,0.0180054,0.0457764,0.0256348,0.0201416,0.038147,0.0195312,0.0314331,0.0177002,0.0405884,-0.0341797,-0.000610352,0.0415039
148,3,-0.0506592,0.020752,0.0460815,0.0369263,0.0289917,0.0198364,0.0158691,-0.00183105,0.015564,0.0366211,-0.0201416,-0.0228882,0.0335693
148,4,-0.0524902,0.0146484,0.0402832,0.0314331,0.0177002,0.0167847,0.0436401,-0.00457764,0.015564,-0.00335693,-0.0363159,-0.0228882,0.0405884
149,0,-0.0650024,0.00946045,0.127563,0.0473022,0.0265503,0.032959,0.0170898,-0.0137329,0.00793457,0.0210571,-0.0265503,-0.0146484,0.0149536
149,1,-0.022583,0.00762939,0.0582886,0.0445557,0.0231934,0.0274658,0.0149536,-0.0128174,0.0128174,0.032959,-0.0152588,0.0408936,0.0323486
149,2,-0.00488281,0.0177002,0.0494385,0.0238037,0.0186157,0.0274658,-0.00335693,0.000305176,0.017395,0.0689697,-0.032959,0.0778198,0.0314331
149,3,0.00488281,0.0323486,0.0152588,0.0204468,0.022583,0.0299072,0.0247192,0.00366211,0.0201416,0.0390625,-0.0344849,0.0994873,0.0305176
149,4,0.0012207,0.0216675,0.0445557,0.0350952,0.015564,0.0213623,0.0863647,-0.012207,0.022583,0.0469971,-0.0210571,0.0906372,0.0363159
150,0,-0.0567627,0.0363159,0.00274658,0.0149536,0.0112915,0.0292969,0.0396729,0.0115967,0.0186157,0.0335693,-0.0286865,0.108643,0.104065
150,1,-0.0961304,0.022583,-0.0317383,0.0180054,0.0140381,0.0271606,0.0344849,0.00793457,0.0177002,0.0363159,-0.0363159,0.0744629,0.0274658
150,2,-0.0775146,0.0250244,-0.0186157,0.0222778,0.0143433,0.0442505,0.0134277,0.00579834,0.0341797,0.0384521,-0.0262451,0.00152588,0.0332642
150,3,-0.132446,0.0195312,0.0115967,0.0360107,0.0314331,0.00457764,0.0280762,0.0183105,0.020752,0.0289917,0.0146484,-0.00244141,0.03479
150,4,-0.133362,0.0402832,0.0198364,0.0244141,0.0234985,0.0213623,0.0170898,0.00671387,0.0234985,0.0369263,-0.0238037,-0.0170898,0.0238037
151,0,-0.166931,0.0756836,0.0305176,0.0338745,0.0372314,0.0241089,0.032959,-0.0088501,0.0204468,0.0238037,-0.00335693,-0.0445557,0.0262451
151,1,0.0204468,0.0512695,0.0411987,0.0296021,0.0219727,0.017395,-0.0131226,0.00366211,0.0314331,0.0265503,-0.027771,-0.0704956,0.0418091
151,2,0.152893,0.0375366,0.0595093,0.0372314,0.020752,-0.0088501,0.017395,0.0100708,-0.00457764,0.0350952,-0.0198364,-0.10498,0.0442505
151,3,0.185547,0.043335,0.0469971,-0.0158691,0.00671387,0.0204468,0.043335,-0.0213623,0.0180054,0.0253296,-0.0134277,-0.0616455,0.0250244
151,4,0.220947,0.0442505,0.0296021,0.0250244,0.0158691,0.0100708,0.020752,0.0323486,0.0308228,0.0421143,-0.0299072,-0.027771,0.0210571
152,0,0.183411,0.050354,0.0604248,0.0234985,0.0177002,0.0283813,0.0204468,0.0161743,-0.0411987,0.0131226,-0.0250244,0.0241089,0.0354004
152,1,0.114136,0.0210571,-0.00732422,0.0256348,0.0143433,0.0158691,0.0253296,0.00518799,0.00976562,0.0128174,0.000610352,0.0357056,0.0320435
152,2,0.0738525,0.0405884,-0.00915527,0.0274658,0.0140381,0.0210571,0.0238037,0.0140381,0.00610352,0.0137329,-0.0305176,0.111694,0.0244141
152,3,0.0592041,0.0256348,0.000915527,0.0186157,0.0332642,0.0146484,0.0106812,0.0115967,0.0088501,0.0128174,0.00305176,0.12207,0.0424194
152,4,0.0653076,0.0299072,0.0201416,0.0369263,0.0128174,0.0109863,-0.00427246,0.0140381,0.00823975,0.0195312,-0.0299072,0.136108,0.0320435
153,0,0.0549316,0.0265503,0.032959,0.0238037,0.010376,-0.00274658,0.0146484,0.0259399,-0.00671387,-0.00793457,-0.0222778,0.140381,-0.0360107
153,1,0.0543213,0.0268555,0.0234985,0.0350952,0.0390625,0.0271606,0.0170898,0.0170898,0.0140381,0.00152588,-0.0341797,0.0909424,0.0411987
153,2,-0.00488281,0.0180054,0.0231934,-0.00244141,0.0250244,0.0119019,-0.0204468,0.0457764,0.022583,-0.0335693,-0.0326538,0.0390625,0.039978
153,3,-0.0149536,0.0469971,0.0320435,0.03479,-0.0161743,0.00610352,0.0311279,0.00701904,0.0286865,-0.00183105,-0.0292969,0.0283813,0.0369263
153,4,-0.0210571,0.0134277,0.0439453,0.0280762,0.0274658,0.00305176,0.0219727,0.0332642,0.0668335,0.00244141,-0.0308228,0.017395,0.038147
154,0,-0.0177002,0.0289917,0.0491333,0.0189209,0.0253296,0.0180054,-0.000915527,0.0170898,0.0234985,-0.0439453,-0.0326538,-0.06073,0.0476074
154,1,0.0588989,0.0512695,0.104065,0.0302124,0.0372314,0.0311279,0.0259399,0.0128174,0.0216675,0.00579834,-0.0244141,-0.0369263,0.00823975
154,2,0.138855,0.0616455,0.112915,0.055542,0.0308228,0.0872803,0.0201416,0.0134277,0.0372314,0.000610352,-0.0183105,-0.0262451,0.0234985
154,3,0.142212,0.071106,0.0765991,0.0396729,0.0280762,0.0244141,0.0192261,0.0119019,0.0219727,-0.00366211,-0.0213623,0.0149536,0.0387573
154,4,0.0592041,0.0537109,0.0946045,0.0326538,0.0619507,0.039978,0.0134277,-0.0228882,0.017395,-0.00457764,-0.000305176,0.0390625,0.0280762
155,0,0.0332642,0.0787354,0.0726318,0.0363159,0.00549316,0.0274658,0.010376,0.0201416,0.00488281,-0.00305176,-0.0271606,0.00762939,0.0213623
155,1,0.100708,0.0454712,0.0234985,0.0296021,0.0265503,0.03479,0.0164795,0.00610352,0.0402832,-0.000915527,-0.0231934,0.0363159,0.0460815
155,2,0.107727,0.00427246,-0.0119019,0.0396729,0.0411987,0.0167847,0.0195312,0.0146484,0.0140381,0.00579834,-0.0308228,0.0415039,0.0231934
155,3,0.111084,0.0323486,0.00305176,0.0463867,0.0219727,0.0863647,0.0244141,0.012207,-0.0335693,0.0125122,-0.0265503,0.0158691,0.0296021
155,4,0.0949097,0.0299072,-0.00793457,0.0268555,0.0210571,0.0289917,-0.00366211,0.0317383,0.00671387,0.050354,-0.0256348,-0.00701904,0.0296021
156,0,0.148926,0.0216675,-0.00335693,-0.0231934,0.0213623,0.0204468,0.0769043,0.0128174,0.0106812,-0.0350952,-0.0180054,0.0302124,0.0515747
156,1,0.0549316,0.0408936,-0.00244141,0.0378418,0.0378418,-0.0012207,0.0180054,0.0143433,0.027771,0.00427246,-0.0357056,0.0314331,0.0149536
156,2,0.0299072,0.0454712,0.0112915,0.0402832,0.0384521,0.00701904,0.0109863,0.0164795,0.0210571,-0.00305176,-0.0088501,0.0201416,0.0314331
156,3,0.0479126,0.0488281,0.00366211,0.0314331,0.0640869,0.0088501,0.027771,0.0283813,0.0140381,0.00396729,-0.0198364,0.0305176,0.0354004
156,4,0.0143433,0.0393677,0.0195312,0.0747681,0.0411987,0.0280762,-0.0265503,0.0201416,0.0253296,-0.0320435,-0.0231934,0.00823975,0.012207
157,0,-0.00396729,0.0259399,-0.0317383,0.0344849,0.0335693,0.0552368,0.0244141,0.0198364,-0.00610352,-0.00152588,-0.0311279,-0.00732422,0.0296021
157,1,0.0128174,0.0244141,0.0390625,0.043335,0.0332642,0.0384521,0.0210571,0.020752,0.00427246,-0.00213623,-0.0436401,-0.00640869,0.0286865
157,2,0.020752,0.027771,-0.00610352,0.0500488,0.0366211,0.0186157,0.0112915,0.0152588,0.0189209,-0.00823975,-0.0308228,0.00396729,0.0317383
157,3,0.0271606,0.00946045,0.0164795,0.0213623,0.0253296,0.0170898,0.0286865,0.0146484,-0.00213623,-0.0204468,-0.0311279,-0.0183105,0.057373
157,4,0.0631714,0.0387573,0.0143433,0.0564575,0.0402832,0.0311279,0.0128174,0.022583,0.0143433,-0.0115967,-0.0445557,-0.0143433,-0.00732422
158,0,0.0228882,0.0344849,0.000915527,0.0485229,0.0292969,0.020752,0.0186157,0.0125122,0.00701904,0.0131226,-0.0289917,0.0250244,0.015564
158,1,0.0201416,0.0427246,0.0143433,0.0219727,0.0286865,0.0238037,0.0259399,0.0238037,0.0338745,0.00793457,-0.0265503,0.0256348,0.0384521
158,2,-0.0186157,0.0167847,0.0299072,0.0320435,0.0268555,0.0909424,0.0299072,0.0234985,-0.00701904,0.000610352,-0.015564,0.0393677,0.020752
158,3,0.0125122,0.0299072,0.0366211,0.0387573,0.0445557,0.0222778,0.0326538,0.022583,0.0189209,-0.00396729,-0.0283813,0.0479126,0.00274658
158,4,0.0125122,-0.020752,0.0384521,0.0460815,0.0286865,0.0219727,0.0128174,0.0430298,-0.00457764,0.00335693,-0.0201416,0.0216675,0.020752
159,0,0.0112915,0.0222778,0.0372314,0.0161743,0.0256348,0.0421143,0.0341797,0.0296021,0.00671387,0.0106812,-0.0302124,0.012207,0.0219727
159,1,-0.0088501,0.0320435,0.0234985,0.0360107,0.0628662,0.0405884,0.0143433,0.0244141,-0.00396729,0.00640869,-0.0131226,0.0143433,0.0140381
159,2,-0.0244141,0.0262451,0.0411987,0.0494385,0.0274658,0.0643921,0.0354004,0.0143433,0.0231934,0.0210571,-0.0302124,-0.0088501,0.0152588
159,3,-0.0213623,0.0131226,0.0311279,0.0491333,0.0405884,0.0296021,0.0167847,0.0662231,0.0204468,0.010376,-0.0216675,-0.000915527,0.0112915
159,4,-0.0210571,0.0149536,0.0357056,0.027771,0.0259399,0.0527954,0.0256348,0.0299072,-0.00305176,0.0299072,-0.0238037,0.0152588,0.0231934
160,0,-0.0131226,0.0341797,0.0210571,0.0302124,0.0457764,0.045166,0.0299072,0.0210571,0.0115967,0.0723267,-0.0299072,0.0262451,-0.00823975
160,1,-0.00976562,0.0134277,0.0234985,0.0390625,0.0323486,0.0228882,0.0308228,0.0534058,0.0119019,0.0119019,-0.0192261,0.0158691,0.0357056
160,2,-0.0088501,-0.0418091,0.012207,0.0384521,0.0805664,0.0619507,0.0198364,-0.0311279,0.00366211,0.0125122,-0.0231934,0.0247192,0.0299072
160,3,-0.0518799,0.0183105,0.0146484,0.0421143,0.0430298,0.0357056,0.0314331,0.0134277,0.0167847,0.0177002,-0.0219727,0.0250244,0.0268555
160,4,0.0140381,0.0177002,0.0280762,0.0354004,0.0476074,0.0253296,0.00488281,0.0436401,0.0192261,0.00335693,-0.0476074,0.020752,0.0186157
161,0,0.0247192,0.0192261,0.0320435,0.0296021,0.0390625,0,0.0253296,0.0366211,0.0219727,0.0170898,-0.0180054,0.0146484,-0.0100708
161,1,0.00518799,0.0204468,0.0387573,0.0292969,0.0137329,0.0463867,0.0390625,0.0231934,0.017395,0.0167847,-0.0152588,0.0198364,0.0222778
161,2,0.00305176,0.0161743,0.0741577,0.0363159,0.0360107,-0.0137329,0.0354004,0.0253296,0.0201416,-0.00396729,-0.0283813,0.0164795,0.0405884
161,3,-0.00640869,0.0180054,0.0476074,0.0241089,0.0427246,0.0479126,0.0234985,0.0241089,-0.00640869,0.00854492,-0.0128174,0.0314331,0.00946045
161,4,0.0201416,0.00671387,0.0579834,0.0268555,0.0357056,0.0323486,0.027771,0.0241089,0.0286865,0.0167847,-0.0125122,0.0305176,0.0161743
162,0,-0.00946045,0.0265503,0.0161743,0.0180054,0.0314331,0.0366211,0.0268555,0.032959,0.0305176,-0.000610352,-0.0137329,0.0473022,0.015564
162,1,0.00579834,-0.0430298,0.0271606,0.0320435,-0.0238037,0.0494385,0.0274658,0.0320435,0.0137329,0.000610352,-0.0296021,0.0280762,0.0210571
162,2,0.017395,0.0146484,0.0228882,0.0186157,0.0222778,0.0265503,0.0338745,0.038147,0.0253296,0.0186157,-0.0332642,0.0421143,0.022583
162,3,0.0210571,0.0131226,0.022583,0.0241089,0.0357056,0.0494385,0.032959,0.0256348,0.0152588,0.0305176,-0.00793457,0.0643921,0.0418091
162,4,0.0335693,0.00946045,0.00366211,0.0402832,0.0616455,0.03479,0.0308228,0.0256348,0.0296021,0.0137329,-0.0149536,0.00335693,0.015564
163,0,0.0344849,0.0250244,0.022583,0.0323486,0.0292969,0.0268555,0.0192261,0.0357056,0.012207,0.0167847,0.017395,0.000915527,0.0292969
163,1,0.0204468,0.0189209,0.00946045,0.0354004,0.0338745,0.027771,0.0308228,0.0320435,0.0100708,0.0274658,-0.017395,0.0332642,0.0219727
163,2,0.0241089,-0.00457764,0.0317383,0.0213623,0.0350952,0.0195312,0.0338745,0.038147,0.0134277,0.0259399,0.0134277,0.000915527,0.0128174
163,3,-0.00671387,0.00518799,0.038147,0.0387573,0.0302124,0.0360107,0.027771,0.0286865,0.0259399,0.0256348,-0.0109863,0.0149536,0.0216675
163,4,-0.000915527,0.0100708,0.0695801,0.0177002,0.03479,0.0283813,0.0350952,0.0357056,0.0213623,0.0411987,-0.0457764,0.00732422,0.0183105
164,0,-0.00396729,0.0323486,0.0396729,0.0305176,0.0210571,0.0204468,0.0234985,0.0128174,-0.0189209,0.0250244,-0.0125122,-0.00701904,0.00976562
164,1,-0.00335693,0.0180054,0.0439453,0.0216675,0.0286865,0.0317383,0.017395,0.022583,0.0283813,0.0424194,-0.020752,0.00213623,0.0527954
164,2,0.0192261,0.00549316,0.0387573,0.0189209,0.0314331,0.0808716,0.0195312,0.0308228,0.0213623,0.0241089,-0.017395,0.0164795,0.0238037
164,3,0.00396729,0.0213623,0.0268555,0.0271606,0.000915527,0.0238037,0.0335693,0.022583,0.0192261,0.0262451,-0.00793457,0.0405884,0.0219727
164,4,0.0320435,-0.00183105,0.0405884,0.0125122,0.0250244,0.0317383,0.027771,0.0500488,0.032959,0.0280762,-0.0186157,0.0683594,0.0146484
165,0,0.0344849,0.0253296,0.0469971,0.0186157,0.0292969,0.0390625,0.0314331,0.0460815,0.0250244,0.0115967,0.00946045,0.0683594,0.0128174
165,1,0.0320435,0.0177002,-0.00732422,0.00457764,0.0421143,0.0686646,0.043335,0.0454712,0.0338745,0.00946045,-0.020752,0.0341797,0.0186157
165,2,0.00518799,-0.0180054,0.00579834,0.012207,-0.0146484,0.0393677,0.0439453,0.0811768,0.0216675,0.0344849,-0.00457764,0.0222778,0.0115967
165,3,-0.00305176,0.0228882,0.0256348,0.0125122,0.0305176,-0.0314331,0.0314331,0.0366211,0.00640869,0.0125122,-0.012207,0.0714111,0.00915527
165,4,-0.0158691,0.0222778,0.000305176,0.0323486,0.0524902,-0.0314331,0.0296021,0.0387573,0.0189209,0.00701904,-0.00152588,-0.0109863,0.00915527
166,0,-0.0323486,0.00732422,0.0189209,0.0177002,0.0259399,0.083313,0.0271606,0.038147,0.0888062,0.0161743,-0.012207,0.00183105,0.0158691
166,1,-0.0238037,0.0195312,0.0238037,0.0204468,0.022583,0.0299072,0.0149536,0.0311279,-0.0314331,0.00732422,-0.0183105,-0.0344849,0.0164795
166,2,-0.00976562,0.00915527,0.00213623,0.0201416,0.0424194,0.0387573,0.0314331,0.0384521,0.0250244,0.0161743,-0.0149536,-0.012207,0.010376
166,3,-0.0198364,0.0280762,0.00152588,0.0430298,0.0338745,0.0305176,0.0476074,0.032959,0.0112915,-0.0375366,-0.00915527,-0.0546265,0.0109863
166,4,0.0177002,-0.0231934,0.0231934,0.0189209,0.0250244,0.0134277,0.0259399,0.0372314,0.0241089,0.00579834,-0.0170898,-0.0479126,0.0180054
167,0,-0.0650024,-0.00183105,0.0244141,-0.0149536,0.0198364,0.0335693,-0.00183105,0.0653076,0.000915527,-0.0387573,-0.0531006,-0.0378418,-0.0390625
167,1,-0.0521851,0.00732422,0.0372314,0.062561,0.0247192,0.0341797,0.0357056,0.0296021,0.022583,0.0128174,-0.0317383,-0.0430298,0
167,2,-0.0256348,0.015564,0.0283813,0.012207,0.0180054,0.0454712,0.0253296,0.0454712,0.0115967,0.0143433,-0.0317383,-0.0100708,0.0180054
167,3,0.015564,0.0238037,0.0192261,0.0241089,0.0283813,0.0216675,0.0222778,0.0210571,0.0286865,0.00701904,-0.0311279,0.0366211,0.00579834
167,4,-0.0131226,0.0262451,0.0256348,0.0234985,0.0735474,0.0244141,0.0268555,0.062561,0.0234985,0.0183105,-0.00793457,0.0549316,0.0234985
168,0,0.0628662,0.0201416,0.0109863,0.0759888,0.0271606,0.0262451,0.0421143,0.0231934,0.0158691,-0.0311279,-0.0213623,0.0579834,0.038147
168,1,0.10437,0.0198364,-0.00579834,0.00823975,0.0256348,0.0302124,0.0189209,0.0335693,0.0198364,0.0195312,-0.0183105,0.00427246,0.0158691
168,2,0.0561523,0.0405884,-0.0311279,-0.00244141,0.00793457,0.0274658,0.03479,0.0354004,0.022583,0.0247192,-0.0112915,0.0494385,0.0180054
168,3,0.0283813,0.0280762,-0.0164795,0.012207,0.0311279,0.0448608,0.0445557,0.0326538,0.0268555,0.0198364,-0.0250244,0.0357056,0.0109863
168,4,-0.0411987,0.0152588,0.00549316,0.0286865,0.022583,0.0012207,0.0408936,0.0375366,0.0259399,0.0088501,-0.038147,0.0161743,0.00793457
169,0,0,0.0500488,0.0109863,0.0244141,0.00854492,0.0228882,-0.0195312,0.0256348,0.0289917,0.0238037,-0.0222778,-0.0180054,0.00946045
169,1,0.0610352,0.0305176,0.0119019,0.0088501,0.015564,0.0158691,0.0274658,0.0949097,0.0219727,0.03479,0.0286865,-0.00183105,0.017395
169,2,0.043335,0.0192261,0.0146484,0.00732422,0.0186157,0.0292969,0.0259399,0.0375366,-0.00610352,0.0439453,-0.0088501,0.0683594,0.00976562
169,3,0.03479,0.0265503,0.00671387,0.0137329,0.0283813,0.0253296,0.0289917,0.0476074,0.022583,0.0372314,-0.0143433,0.0259399,0.0131226
169,4,0.0244141,0.0262451,0.015564,0.0143433,0.0247192,0.0268555,0.0384521,0.0259399,0.0341797,0.0268555,-0.0231934,0.062561,0.0241089
170,0,0.0100708,0.0238037,0.00335693,-0.00457764,0.0161743,0.0283813,0.0177002,0.0344849,-0.0213623,0.0509644,-0.0109863,0.020752,0.0204468
170,1,0.0317383,0.00610352,0.0421143,0.00640869,0.0198364,-0.00518799,0.0305176,0.0335693,0.0253296,0.0286865,-0.0241089,0.0271606,0.00915527
170,2,0.0131226,0.0296021,0.022583,0.010376,0.0561523,0.0286865,0.0299072,0.0906372,0.0311279,0.0332642,-0.0189209,0.0247192,0.0140381
170,3,0.0180054,0.00946045,0.0125122,0.0152588,0.0283813,0.0250244,0.0314331,0.0332642,0.0332642,0.0149536,-0.0332642,0.0201416,0.0112915
170,4,0.0177002,0.017395,0.0210571,0.0131226,0.0238037,0.0308228,0.0454712,0.03479,0.0244141,0.0497437,-0.012207,0.00823975,0.00823975
171,0,0.0164795,0.00396729,0.00976562,0.0140381,0.0393677,0.0241089,0.0213623,0.0640869,0.0219727,0.0247192,-0.0314331,0.0250244,0.0140381
171,1,0.0231934,0.00610352,0.020752,0.0088501,0.015564,0.0338745,0.0219727,0.0299072,0.0250244,0.0344849,-0.0247192,0.0143433,0.0088501
171,2,0.0283813,0.00671387,0.0115967,-0.0131226,0.0219727,0.0289917,-0.0158691,0.0457764,0.0341797,-0.0228882,-0.0213623,0.000915527,0.0183105
171,3,0.0408936,0.0100708,0.017395,0.0088501,0.0161743,0.0341797,0.0289917,0.0396729,0.0372314,0.0210571,-0.0180054,0.0158691,0.0128174
171,4,0.0775146,0.000915527,0.0280762,-0.0164795,0.00732422,0.0332642,0.0317383,0.0286865,0.0332642,0.0195312,-0.0283813,0.0341797,0.00793457
172,0,0.0283813,0.00762939,0.0204468,0.0146484,0.038147,0.0338745,0.0262451,0.0317383,0.0405884,0.0253296,-0.0244141,0.0543213,0.03479
172,1,0.0350952,-0.010376,0.00854492,0.00610352,0.0436401,0.0354004,0.0238037,0.0305176,0.0292969,0.0421143,-0.0109863,0.0610352,0.0146484
172,2,0.00579834,0.039978,0,0.027771,0.022583,0.0415039,0.0167847,0.0320435,0.0250244,0.0238037,-0.027771,0.0146484,0.0210571
172,3,-0.00579834,0.00366211,0.0119019,0.0161743,0.022583,0.0643921,0.0238037,0.0292969,0.0378418,0.015564,-0.0152588,0.0354004,0.0219727
172,4,-0.0170898,-0.0543213,0.0222778,0.00305176,0.0637817,0.0119019,0.0256348,-0.027771,0.0125122,0.0201416,-0.0180054,0.0479126,0.0152588
173,0,-0.0613403,0.0161743,0.0152588,0.0119019,0.0189209,0.0387573,0.012207,0.0131226,0.0271606,0.0338745,-0.0222778,-0.0292969,0.0180054
173,1,-0.0970459,0.0241089,0.0195312,0.012207,0.0177002,0.0244141,0.0430298,0.0192261,0.0271606,0.0521851,-0.0204468,-0.0131226,0.0247192
173,2,-0.0653076,0.0268555,0.0241089,-0.00610352,0.0192261,0.032959,0.0430298,0.0274658,0.0296021,0.0265503,-0.0231934,-0.00732422,0.0219727
173,3,-0.020752,0.0509644,0.0360107,0.00762939,0.0274658,0.0262451,0.0299072,0.0286865,0.0320435,0.0302124,-0.0241089,-0.00213623,0.0222778
173,4,0.0326538,0.0302124,0.0305176,-0.0149536,0.0250244,0.038147,0.0695801,0.0500488,0.0357056,0.0863647,-0.0198364,0.0146484,-0.0256348
174,0,0.0445557,0.0622559,0.0189209,0.00305176,0.027771,0.00457764,0.0317383,0.0152588,0.0305176,0.0213623,-0.0195312,-0.0106812,0.0180054
174,1,0.0576782,0.0372314,0.0189209,0.00396729,0.0213623,0.0302124,0.0131226,0.0146484,-0.00976562,0.0183105,-0.0140381,-0.0332642,0.0109863
174,2,0.0915527,0.0210571,0.0357056,0.0143433,0.071106,0.0222778,0.012207,0.0643921,0.0158691,0.0292969,-0.0238037,-0.0109863,0.012207
