Devices
1000
,,Myon - Voltage,,,,,,,,,,,,,
Frame,Sub Frame,GC-M,TA,SOL,VM,VL,RF,BF,ST,GLUT-M,EO,Gracilis,GC-L,Semimembranosus
,,V,V,V,V,V,V,V,V,V,V,V,V,V
1,0,0.00549316,0.0152588,0.0662231,-0.0100708,0.00671387,-0.0088501,0.0454712,0.0228882,0.0326538,0.0137329,-0.0314331,0.0909424,0.0192261
1,1,0.0177002,0.0195312,0.0360107,-0.00183105,0.0250244,0.0180054,0.017395,0.0308228,0.0262451,0.0762939,-0.0192261,0.020752,-0.0344849
1,2,0.0387573,-0.000610352,0.00671387,-0.00427246,-0.0189209,0.0216675,0.0247192,0.0369263,0.0460815,0.0360107,-0.0326538,0.0170898,0.0088501
1,3,0.027771,0.0244141,0.0125122,0.0567627,0.0216675,0.027771,-0.0192261,0.03479,0.0366211,0.0402832,-0.0167847,0.0234985,0.00244141
1,4,0.0564575,0.0149536,0.0164795,-0.0247192,0.0280762,0.0311279,-0.0326538,0.0378418,0.0280762,0.0259399,-0.0143433,0.0234985,0.06073
2,0,0.0201416,0.0140381,0.0576782,0.0308228,0.0250244,0.0234985,0.010376,0.0241089,0.0369263,0.0387573,-0.0350952,0.0183105,0.00457764
2,1,0.0292969,0.0512695,-0.00823975,0.0283813,0.0234985,0.0350952,0.0283813,0.0213623,0.0335693,0.0363159,-0.0299072,0.0720215,0.0112915
2,2,0.0292969,0.0222778,0.0241089,0.0180054,0.0125122,0.0668335,0.0189209,0.0152588,0.0198364,0.0280762,-0.0299072,0.0238037,0.0280762
2,3,0.022583,-0.00488281,0.0244141,0.0204468,0.00549316,0.017395,0.0177002,0.0164795,0.0326538,0.0189209,-0.0238037,0.0210571,0.0115967
2,4,0.0238037,-0.0152588,0.0469971,0.0299072,0.0219727,-0.0341797,0.0253296,0.0274658,0.0335693,0.0247192,-0.0259399,0.0088501,0.00335693
3,0,0.0305176,-0.0119019,0.00518799,0.0280762,0.012207,0.0268555,0.0183105,0.0259399,0.0354004,-0.000610352,-0.0387573,0.0231934,0.0088501
3,1,-0.0479126,0.000305176,0.0213623,0.00762939,0.0296021,0.0271606,0.0366211,0.0247192,0.0384521,0.0259399,-0.0283813,0.0177002,0.0241089
3,2,0.0283813,-0.00976562,-0.015564,0.0256348,-0.0262451,0.017395,0.0228882,0.0869751,0.0311279,0.0302124,-0.0317383,0.0292969,0.0201416
3,3,0.0259399,-0.00152588,0.00457764,0.00762939,0.0231934,0.0161743,0.0369263,0.0485229,0.0341797,0.0253296,-0.0405884,0.0335693,0.0137329
3,4,0.015564,-0.0210571,0.0189209,-0.00366211,0.0543213,0.0137329,0.0393677,0.0283813,0.0152588,0.0265503,-0.0250244,0.0244141,0.0247192
4,0,0.00854492,0.0369263,0.0448608,-0.0106812,0.0167847,0.0338745,0.038147,0.0271606,0.0418091,0.0238037,-0.0369263,-0.0192261,0.0350952
4,1,0.0170898,0.0515747,0.0112915,-0.00732422,0.00915527,0.0158691,0.0158691,0.0219727,0.0195312,0.0241089,-0.0292969,0.0250244,0.0161743
4,2,0.0579834,0.0601196,0.0158691,0.0241089,0.0158691,0.00488281,0.0796509,0.0286865,0.0247192,0.0161743,-0.06073,0.0289917,0.0372314
4,3,0.0259399,0.0357056,0.015564,-0.00366211,0.010376,0.0158691,-0.0106812,0.0189209,0.027771,-0.0106812,-0.0253296,0.0308228,0.0106812
4,4,0.0259399,0.0238037,0.0192261,-0.000305176,0.0201416,0.0204468,0.0289917,0.0112915,0.038147,0.0610352,-0.0238037,0.0222778,0.0454712
5,0,-0.00946045,0.0222778,0.0177002,-0.0582886,0.0241089,0.012207,0.0183105,0.0204468,0.0244141,0.015564,-0.0152588,0.0262451,0.00793457
5,1,0.0219727,0.0698853,0.0201416,0.00640869,0.0427246,0.0308228,0.0338745,-0.0088501,0.0460815,0.0219727,-0.0204468,0.0192261,0.0335693
5,2,0.0274658,0.0354004,0.0708008,0.0177002,0.0262451,0.0170898,0.012207,0.0201416,0.0674438,0.0335693,-0.0213623,0.0231934,0.0170898
5,3,0.0387573,0.0286865,0.0137329,-0.00549316,0.038147,0.0280762,0.0219727,0.0326538,0.0302124,0.0442505,-0.0253296,0.0167847,0.0149536
5,4,0.0283813,0.0244141,0.0219727,0.00793457,0.0119019,0.020752,0.0189209,0.0234985,0.0372314,0.0357056,-0.0292969,0.0125122,0.0463867
6,0,0.0546265,0.0180054,0.00793457,0.0302124,0.00976562,0.0656128,0.00183105,0.0259399,0.0640869,0.0338745,-0.0259399,0.0479126,0.0088501
6,1,0.0308228,0.0479126,0.0323486,0.0283813,0.0149536,0.0274658,0.0201416,0.0198364,0.03479,0.0494385,-0.0302124,0.0320435,0.0354004
6,2,0.0268555,0.00244141,0.0134277,0.0531006,0.0576782,0.0296021,0.0244141,0.0012207,0.0512695,0.0384521,-0.0170898,0.027771,0.0259399
6,3,0.0109863,0.00732422,0.0286865,0.0500488,0.00274658,0.0213623,0.0192261,0.0299072,0.0170898,0.0357056,-0.0335693,0.0360107,0.0161743
6,4,0.0372314,0.0250244,0.00366211,0.0524902,0.015564,0.0326538,0.0167847,0.0146484,0.0253296,0.0363159,-0.0283813,0.0335693,0.0247192
7,0,0.0228882,0.0360107,0.0167847,0.0482178,0.0192261,0.012207,0.0317383,0.00396729,0.0274658,0.0183105,-0.0357056,0.0350952,0.0222778
7,1,0.0405884,0.0109863,-0.0109863,0.0387573,0.0161743,0.020752,0.0363159,0.0195312,0.0326538,0.0302124,-0.0283813,0.0146484,0.03479
7,2,0.0289917,0.0137329,-0.00244141,0.0180054,0.0222778,0.0354004,-0.000610352,0.0192261,0.0146484,0.0299072,-0.0317383,0.0204468,0.0335693
7,3,0.09552,0.0375366,0.0305176,-0.0204468,-0.00579834,0.0140381,0.0494385,0.00793457,0.0186157,-0.0250244,-0.0259399,0.00701904,0.0756836
7,4,0.0201416,-0.00457764,0.0234985,0.0106812,0.0112915,0.0201416,0.0305176,0.0189209,0.00701904,0.0402832,-0.0305176,0.0274658,0.0335693
8,0,0.03479,0.0088501,0.03479,0.0140381,0.00579834,-0.0158691,0.0274658,0.00976562,0.0311279,0.0274658,-0.03479,0.0189209,0.0177002
8,1,0.0265503,0.00518799,0.0250244,-0.00366211,-0.0424194,0.0140381,0.0112915,0.0192261,0.0219727,0.0332642,-0.0299072,0.0256348,0.0387573
8,2,0.0283813,0.00213623,0.0164795,0.00427246,0.0146484,0.0192261,0.0253296,0.0204468,0.0222778,0.0662231,-0.0448608,0.0357056,0.0463867
8,3,0.0344849,0.0177002,0.00976562,0.00488281,0.00701904,0.0335693,0.0195312,0.0180054,0.0177002,0.0357056,-0.0241089,0.0457764,0.0241089
8,4,0.0344849,0.0259399,-0.0488281,0.00976562,0.00946045,0.0180054,0.0137329,-0.00183105,0.0256348,0.0210571,-0.0195312,0.0289917,0.0457764
9,0,0.0415039,0.0335693,-0.0201416,0.00427246,0.0164795,-0.0213623,0.0354004,0.0283813,0.0219727,0.0170898,-0.0314331,0.0354004,0.0259399
9,1,0.03479,0.039978,0.012207,0.0308228,0.0164795,-0.00427246,0.00518799,0.0161743,0.0363159,0.0213623,-0.0238037,0.0158691,0.0286865
9,2,0.0524902,0.0479126,0.0384521,0.0204468,0.0204468,0.00305176,0.043335,-0.00366211,0.0134277,0.0372314,-0.0119019,0.0259399,0.0241089
9,3,0.0448608,0.0576782,0.0408936,0.0192261,0.0146484,0.00213623,0.00183105,0.0262451,0.0265503,0.0311279,-0.0405884,0.038147,0.0506592
9,4,0.0411987,0.0402832,0.00854492,0.0274658,0.0231934,0.0161743,0.0296021,0.0195312,0.0427246,0.0576782,-0.0234985,0.0323486,0.032959
10,0,0.0415039,0.0259399,0.0131226,0.0360107,0.020752,0.00518799,0.00793457,0.0476074,0.0805664,0.0265503,-0.0457764,0.0708008,0.0192261
10,1,0.0457764,0.0238037,0.0268555,0.0335693,0.0125122,0.00854492,0.00427246,0,0.0170898,0.0131226,-0.0357056,0.0280762,0.0265503
10,2,0.0289917,0.0268555,0.0460815,0.0430298,0.0238037,0.0231934,0.0183105,0.0283813,-0.00549316,0.0265503,-0.0396729,0.0259399,0.0335693
10,3,0.0268555,0.0317383,0.0317383,0.0448608,0.0253296,0.0146484,0.0180054,0.0228882,0.0222778,0.0152588,-0.0390625,0.0375366,0.0354004
10,4,0.0201416,0.0286865,-0.00152588,0.0457764,0.00488281,0.0115967,-0.00244141,-0.0262451,0.027771,0.0112915,-0.0411987,0.0198364,0.038147
11,0,0.0302124,0.0280762,0.0250244,0.0405884,0.0149536,-0.00854492,0.0134277,0.0238037,0.0213623,0.0201416,-0.0259399,0.0305176,0.0384521
11,1,0.0201416,0.0204468,0.0283813,0.0384521,0.0149536,0.015564,0.0259399,0.0384521,0.0146484,0.0442505,-0.0613403,0.0317383,0.0280762
11,2,0.0427246,0.0320435,0.00366211,0.0393677,0.0134277,-0.00701904,0.0161743,0.0180054,0.0305176,0.0268555,-0.0357056,-0.00183105,0.0210571
11,3,0.0378418,0.0296021,0.0576782,0.0271606,0.0204468,0.00854492,0.00518799,0.0167847,0.0210571,0.0402832,-0.0228882,0.0357056,-0.0192261
11,4,0.0552368,0.039978,0.0723267,0.0213623,0.0262451,-0.0411987,0.0170898,0.022583,0.0274658,0.03479,-0.0411987,0.027771,0.0323486
12,0,0.0265503,0.0421143,0.0234985,0.00823975,0.00762939,0.00823975,0.0112915,0.0222778,0.0341797,0.0338745,-0.0338745,0.0323486,0.03479
12,1,0.0308228,0.0323486,0.038147,0.0189209,0.0177002,0.0338745,-0.010376,0.0167847,0.0195312,0.0442505,-0.0283813,0.00488281,0.0259399
12,2,0.0552368,0.0494385,0.0265503,0.00610352,0.00549316,0.00793457,0.00946045,-0.0140381,0.0274658,0.0259399,-0.0823975,0.038147,0.0292969
12,3,0.0366211,0.0372314,0.0738525,-0.00305176,0.0137329,-0.045166,0.00915527,0.0234985,0.0234985,0.0335693,-0.0375366,0.0195312,0.045166
12,4,0.0360107,0.0100708,0.0390625,-0.00305176,-0.0552368,0.00610352,0.017395,0.0241089,0.0308228,0.0259399,-0.0247192,0.00366211,0.0262451
13,0,0.039978,0.0238037,0.0424194,-0.00854492,0.00793457,0.0167847,0.0161743,0.0286865,-0.0143433,0.0384521,-0.0274658,-0.00457764,0.0305176
13,1,0.0430298,0.0250244,0.0326538,0.000305176,0.0183105,0.0106812,0.00518799,0.010376,0.0604248,0.0396729,-0.0369263,0.0289917,0.0491333
13,2,0.0375366,0.039978,0.0259399,0.00610352,0.0143433,0.012207,0.0250244,0.0271606,-0.0198364,0.0448608,-0.0216675,-0.0192261,0.0146484
13,3,0.0183105,0.0222778,0.022583,0.0222778,0.0167847,0.000610352,0.0216675,0.0186157,0.00701904,0.0268555,-0.0238037,0.0311279,0.0274658
13,4,0.039978,0.0271606,0.00152588,-0.000305176,0.00793457,0.0186157,0.00549316,0.0204468,0.00976562,0.0128174,-0.0408936,0.0210571,0.0317383
14,0,0.0283813,0.0320435,0.0592041,0.00152588,-0.0180054,0.0146484,0.0134277,0.015564,0.0140381,0.0250244,-0.0250244,0.00823975,0.062561
14,1,0.0405884,0.088501,0.0177002,-0.00457764,0.0265503,0.010376,0.0131226,0.0219727,0.0210571,0.0408936,-0.0372314,0.0469971,0.0241089
14,2,0.0601196,0.0302124,0.00793457,0.0521851,0.00823975,0.00457764,0.0463867,0.0234985,0.0219727,0.0613403,-0.010376,0.0320435,0.0692749
14,3,-0.0106812,0.0357056,0.0283813,-0.0204468,0.0408936,0.0286865,-0.0134277,-0.00854492,0.00854492,0.0213623,-0.0186157,0.0369263,0.0308228
14,4,0.0286865,0.012207,0.0219727,0.101318,0.0238037,0.0177002,0.043335,0.0253296,0.0161743,0.0415039,-0.0253296,0.0234985,0.0335693
15,0,-0.00946045,0.017395,0.0308228,0.103149,0.00946045,0.0134277,0.0662231,0.0323486,0.0292969,0.0186157,-0.0296021,0.0271606,0.0256348
15,1,0.0286865,0.0372314,0.032959,0.0479126,-0.0445557,0.0164795,0.00976562,-0.0180054,0.0201416,0.0302124,-0.022583,0.0308228,0.0314331
15,2,0.0189209,0.0231934,0.0311279,0.0131226,0.0262451,0.0228882,-0.0106812,0.0115967,0.0137329,-0.0128174,-0.0228882,0.0369263,-0.010376
15,3,0.045166,0.0241089,0.0247192,0.0384521,0.0463867,0.0164795,0.0186157,0.0247192,0.010376,0.022583,-0.0280762,0.00732422,0.0384521
15,4,0.0366211,0.0372314,0.0274658,0.032959,0.0268555,-0.00366211,0.017395,0.0311279,0.00335693,0.0213623,-0.0445557,0.0518799,0.0305176
16,0,0.0317383,0.0363159,0.0305176,0.0219727,0.0289917,0.0167847,0.0436401,0.0112915,0.0186157,0.0201416,-0.0372314,0.0430298,0.012207
16,1,0.045166,0.0387573,0.0302124,0.0228882,0.00701904,0.0271606,0.0201416,0.0189209,0.0146484,0.0262451,-0.0378418,0.0189209,-0.0146484
16,2,0.00793457,0.0280762,0.0372314,0.0250244,0.0192261,0.0259399,0.00518799,0.0100708,0.0222778,0.0256348,-0.0198364,0.0234985,0.0790405
16,3,0.020752,0.0286865,0.0149536,-0.00396729,0.0335693,0.00671387,0.0259399,0.0134277,0.0186157,0.0332642,-0.0354004,0.0222778,0.0183105
16,4,0.038147,0.0259399,0.0238037,0.00946045,0.0183105,0.0189209,0.00854492,0.0183105,0.00396729,0.0256348,-0.0387573,0.0210571,0.032959
17,0,-0.00457764,0.0234985,0.0360107,0.0561523,0.0408936,0.0192261,0.0436401,0.0289917,0.0216675,-0.0216675,-0.0402832,0.015564,-0.00671387
17,1,0.0314331,0.0247192,0.00701904,0.0430298,-0.0473022,0.0167847,0.0234985,0.0137329,0.0335693,-0.000610352,-0.0305176,0.0415039,0.0564575
17,2,0.0299072,0.0869751,0.0326538,0.0247192,0.0436401,0.0247192,0.020752,0.00976562,0.0308228,0.0204468,-0.0289917,0.0170898,0.027771
17,3,0.0354004,0.0390625,0.0213623,0.0445557,-0.0323486,0.0167847,0.00946045,-0.0311279,0.0198364,0.0201416,-0.0350952,0.0354004,0.0396729
17,4,0.0366211,0.0177002,0.0170898,0.0466919,0.0256348,0.0164795,0.0125122,-0.00610352,0.0109863,0.0302124,-0.0286865,0.0296021,0.00274658
18,0,0.0439453,0.00396729,0.0363159,0.0146484,0.0244141,0.015564,0.0494385,0.0161743,-0.00274658,0.0234985,-0.0198364,0.03479,0.0262451
18,1,0.0283813,0.0177002,0.039978,0.0350952,0.0247192,0.0411987,0.010376,0.0247192,0.0262451,0.043335,-0.0146484,0.022583,0.0216675
18,2,0.0738525,0.0213623,0.0140381,0.0595093,0.0408936,0.0238037,0.00701904,0.0164795,0.0170898,0.00701904,0.00976562,0.0311279,0.0259399
18,3,0.0219727,0.0253296,0.0283813,0.0613403,0.0271606,-0.0360107,0.0241089,0.015564,-0.0396729,0.0228882,-0.0323486,-0.0143433,0.0213623
18,4,0.0167847,0.0344849,0.0570679,0.0830078,0.0344849,0.0170898,0.010376,-0.00854492,0.0189209,0.0216675,-0.0250244,0.0335693,0.0305176
19,0,0.0286865,0.0131226,0.0210571,0.0509644,0.0204468,0.0302124,0.0219727,0.015564,0.0253296,-0.0326538,-0.022583,0.0250244,0.0250244
19,1,0.0314331,0.0271606,0.0222778,0.0613403,0.0201416,0.0128174,0.00946045,0.0323486,0.0241089,0.0210571,-0.0308228,0.017395,0.0796509
19,2,0.0411987,0.0180054,0.0332642,0.0222778,0.0320435,0.0180054,-0.00457764,0.0332642,0.0305176,0.017395,-0.0213623,0.0372314,0.0894165
19,3,0.0283813,0.0250244,0.0299072,0.0274658,0.0180054,0.0888062,0.0292969,0.00946045,0.0695801,0.0289917,-0.0360107,-0.0253296,0.0311279
19,4,0.0616455,0.017395,0.0436401,0.0405884,0.0341797,0.0198364,0.0180054,0.0149536,0.0146484,0.0177002,-0.0238037,0.0262451,0.0387573
20,0,0.0430298,0.020752,0.022583,0.0088501,0.0296021,0.00610352,0.0253296,0.0326538,0.0231934,0.017395,-0.0177002,0.0201416,0.0308228
20,1,0.0274658,-0.010376,0.0158691,0.0100708,0.0308228,0.0106812,-0.00213623,0.0189209,0.0308228,-0.00274658,-0.0714111,0.0186157,0.0497437
20,2,0.022583,-0.00732422,0.0231934,-0.00335693,0.0259399,0.03479,0.0137329,0.00610352,-0.0213623,0.0241089,-0.0265503,0.0656128,0.0411987
20,3,0.0317383,0.0183105,0.0210571,0.00915527,0.0241089,0.00701904,0.0289917,0.0335693,0.0497437,0.00701904,-0.0396729,0.0320435,0.0183105
20,4,0.0183105,0.0100708,0.0320435,0.0100708,0.0308228,0.0238037,0.0360107,0.0134277,0.0253296,0.0192261,-0.0265503,0.0204468,0.00427246
21,0,0.0241089,0.0439453,0.0350952,0.00213623,0.0302124,0.0213623,0.0241089,0.00549316,0.00305176,0.015564,0.0222778,0.0286865,0.0241089
21,1,0.0244141,0.0518799,0.062561,0.00213623,0.0210571,-0.0170898,0.00793457,0.00518799,0.000915527,0.0314331,-0.0152588,0.0793457,0.0283813
21,2,-0.0286865,0.0579834,0.0323486,0.0149536,0.0210571,0.0195312,0.0369263,0.0289917,0.0195312,-0.000305176,-0.0115967,0.0253296,0.0189209
21,3,0.0244141,0.065918,0.0390625,0.0314331,0.0442505,0.00274658,0.0283813,0.0738525,0.0125122,0.0219727,-0.0210571,0.0674438,0.0280762
21,4,0.043335,0.0704956,0.0552368,0.0674438,0.0369263,0.017395,0.0222778,0.00915527,0.00244141,0.022583,-0.0308228,0.0460815,0.0308228
22,0,0.000915527,0.0524902,0.0390625,0.0204468,0.017395,0.0183105,0.0143433,0.0216675,0.000610352,0.0262451,-0.0332642,0.0308228,0.0396729
22,1,0.0244141,0.0378418,0.0698853,0.0372314,0.0238037,0.0204468,0.0354004,0.0134277,0.00732422,0.00152588,-0.0314331,0.0485229,0.0424194
22,2,0.0204468,0.0219727,0.045166,0.0460815,0.0234985,0.0149536,0.0216675,0.0238037,0.0534058,0.0280762,-0.0311279,0.0216675,0.022583
22,3,0.0350952,-0.0262451,0.0186157,0.0500488,0.039978,0.0167847,0.000915527,0.0119019,0.010376,0.0466919,-0.0170898,0.0271606,0.0958252
22,4,0.0296021,-0.0375366,0.0198364,0.0415039,-0.0354004,0.0283813,0.0161743,0.0469971,0.0180054,0.0149536,-0.0262451,0.0332642,0.0280762
23,0,0.0195312,0.00915527,0.0231934,0.057373,0.0146484,0.0198364,0.0192261,0.0286865,0.0131226,0.0296021,-0.0177002,0.0720215,0.0338745
23,1,0.0186157,0.0219727,0.0158691,0.043335,0.0213623,0.0143433,0.00457764,0.0234985,0.012207,0.0274658,-0.0152588,0.0198364,-0.000915527
23,2,0.0296021,0.0311279,0.0262451,0.0302124,0.0247192,0.100403,-0.0012207,0.0247192,-0.0274658,0.0241089,-0.0125122,0.0167847,0.0405884
23,3,0.00640869,0.0460815,0.0918579,0.0317383,0.0332642,-0.0238037,0.020752,0.0265503,-0.0302124,0.0183105,-0.0250244,0.00335693,0.0320435
23,4,0.0158691,0.0558472,0.0189209,0.0189209,0.0177002,0.0289917,0.0183105,0.0210571,0.0250244,0.0088501,-0.0308228,0.0268555,0.0341797
24,0,0.0265503,0.0335693,0.020752,0.0164795,0.0335693,0.010376,0.0271606,0.0262451,0.00579834,0.00183105,-0.027771,0.0247192,0.0332642
24,1,0.015564,0.038147,0.0186157,0.00854492,0.0234985,0.0228882,0.0283813,0.0241089,0.0378418,0.0222778,0.000305176,-0.0216675,0.0338745
24,2,0.0149536,0.020752,0.0344849,0.00152588,0.0393677,0.0265503,0.0146484,0.0280762,0.0167847,0.0280762,-0.0210571,0.0268555,0.0296021
24,3,0.0231934,0.116577,0.0421143,0.00366211,-0.032959,0.0311279,0.0210571,0.0585938,0.00762939,0.0286865,-0.0271606,0.0360107,0.0485229
24,4,0.017395,-0.0195312,0.0393677,-0.00427246,0.0280762,0.022583,0.0323486,0.015564,0.00701904,0.0219727,-0.0170898,0.0234985,0.0363159
25,0,0.0491333,0.0201416,0.0723267,-0.0115967,0.0393677,0.017395,0.0149536,0.0241089,0.0140381,0.00793457,-0.0360107,0.0189209,0.0308228
25,1,0.0311279,0.0305176,0.0378418,0.0134277,0.0238037,0.0317383,0.0292969,0.0234985,0.0170898,-0.0231934,-0.0238037,0.0189209,0.0869751
25,2,0.0210571,0.0421143,0.0332642,0.012207,0.0372314,0.0283813,0.0292969,0.0296021,-0.0177002,0.0189209,-0.0186157,0.0241089,0.0262451
25,3,0.0152588,0.0198364,0.0332642,0.0198364,0.038147,0.0289917,0.032959,0.0332642,0.0106812,0.0189209,-0.0222778,0.0320435,0.0402832
25,4,0.0012207,0.00427246,0.0430298,0.0210571,0.0274658,0.00915527,0.00976562,0.0311279,0.0250244,0.0369263,-0.0238037,0.0204468,0.0259399
26,0,0.0299072,0.00640869,0.0445557,0.00915527,0.038147,0.0305176,0.0265503,0.0454712,-0.0164795,0.0265503,-0.0177002,0.015564,0.0314331
26,1,0.0302124,0.00915527,0.0375366,0.0201416,0.0430298,0.0723267,0.0402832,0.0375366,0.0796509,0.0137329,-0.032959,-0.0186157,0.0274658
26,2,0.0149536,0.0183105,0.0344849,0.022583,0.0372314,0.0268555,0.0213623,0.00549316,-0.0515747,0.0308228,-0.0125122,-0.0140381,0.0271606
26,3,0.0204468,0.0756836,0.0253296,0.0234985,0.0344849,0.0186157,0.0152588,0.0210571,-0.0119019,0.00579834,-0.015564,0.0875854,0.0231934
26,4,0.0189209,0.0466919,0.0534058,0.0250244,0.0473022,0.0668335,0.0335693,0.0305176,0.0115967,0.0128174,-0.0213623,0.0219727,0.0256348
27,0,0.0595093,0.0170898,0.0253296,0.00915527,0.0262451,0.0186157,0.0140381,0.0308228,-0.00183105,0.0723267,-0.0494385,0.0265503,0.0820923
27,1,0.00823975,-0.0131226,0.0357056,0.0393677,0.0320435,0.0439453,0.0292969,0.057373,0.0198364,0.0250244,-0.0146484,0.0259399,0.0341797
27,2,0.0201416,0.0320435,0.0302124,0.0292969,0.0268555,-0.0311279,0.0222778,0.0143433,0.0177002,0.0140381,-0.015564,0.0238037,0.0396729
27,3,0.0128174,0.020752,0.0283813,0.0372314,0.0369263,0.0186157,0.00671387,0.0311279,0.0219727,0.0274658,-0.0222778,0.0296021,0.032959
27,4,0.00274658,-0.0375366,0.0268555,0.0219727,-0.0161743,0.0149536,0.0210571,-0.00457764,0.00152588,0.0134277,-0.0146484,0.0244141,0.0283813
28,0,0.0201416,0.0131226,0.0308228,0.0177002,0.0314331,0.0280762,0.0128174,0.00854492,0.00915527,0.0115967,0.0247192,0.0177002,0.0357056
28,1,0.0186157,-0.00152588,0.0332642,0.00732422,0.0299072,0.0253296,-0.022583,0.0161743,0.020752,0.0308228,-0.0115967,0.0302124,0.0161743
28,2,0.0234985,0.00244141,0.0247192,0.00793457,0.0421143,0.0228882,0.0219727,0.0164795,0.0405884,0.0241089,-0.0274658,0.0250244,0.00976562
28,3,0.0149536,0.017395,0.0219727,0.00793457,0.0411987,0.0405884,0.0262451,0.0231934,-0.00549316,0.0201416,-0.0286865,0.0152588,0.0308228
28,4,0.0204468,0.0143433,0.0366211,-0.000610352,0.022583,0.0250244,0.0299072,0.0274658,0.0201416,0.0234985,-0.043335,0.0354004,0.0164795
29,0,0.0250244,0.00732422,0.0115967,0.0189209,0.00946045,0.0161743,0.0317383,0.0582886,0.00335693,0.0253296,-0.0112915,0.022583,0.0256348
29,1,0.00793457,0.0149536,0.0213623,0.00518799,0.0241089,0.0274658,0.0308228,0.022583,0.0430298,0.00946045,-0.027771,0.0271606,0.0341797
29,2,0.0369263,0.020752,-0.0241089,0.00915527,0.0228882,0.088501,0.0201416,0.020752,-0.0320435,-0.00244141,-0.0283813,0.0622559,0.0485229
29,3,0.0192261,0.0177002,0.0161743,0.0219727,0.0247192,0.0286865,0.020752,0.00183105,0.0192261,0.012207,-0.0234985,0.0296021,0.0198364
29,4,0.00946045,0.0109863,0.0210571,0.0408936,0.0280762,0.0228882,0.012207,0.0234985,0.0210571,0.0210571,-0.0234985,0.0201416,0.0888062
30,0,0.0088501,0.0360107,0.0296021,-0.00915527,0.0305176,0.0445557,0.0357056,0.00732422,0.0195312,-0.00244141,-0.0125122,0.0213623,0.0164795
30,1,0.000305176,0.0280762,-0.0201416,0.032959,0.0262451,0.0973511,0.0408936,0.0241089,0.0686646,0.00640869,-0.0244141,0.0485229,0.0350952
30,2,0.0311279,0.0939941,0.0167847,0.0546265,0.0231934,0.0247192,0.0186157,-0.0222778,0.0360107,0.0170898,-0.0253296,0.0180054,0.0259399
30,3,0.0115967,0.0872803,-0.0134277,0.0479126,0.0213623,0.0213623,0.0253296,0.010376,0.0198364,0.0326538,-0.0180054,0.0189209,0.0253296
30,4,0.0152588,0.015564,0.0213623,0.0637817,-0.0238037,0.0332642,0.0268555,0.0280762,0.0115967,0.00762939,-0.0521851,0.022583,0.0375366
31,0,0.00823975,0.0250244,0.0231934,0.0238037,0.0363159,0.0186157,0.0146484,0.0241089,0.0262451,0.0320435,-0.0268555,0.0140381,0.0314331
31,1,0.0119019,0.0158691,0.00854492,0.0436401,0.0262451,-0.0308228,0.032959,0.0164795,-0.0308228,0.00732422,-0.0283813,-0.00488281,0.0241089
31,2,0.0247192,0.012207,0.0262451,0.0378418,0.0372314,0.0299072,0.027771,0.0204468,0.0161743,0.0262451,0.032959,0.0256348,0.015564
31,3,0.020752,0.0164795,0.0338745,0.0317383,0.0216675,0.0326538,0.017395,0.0219727,0.022583,0.0189209,-0.0109863,0.0216675,0.0628662
31,4,0.0256348,0.0125122,0.0244141,0.0314331,0.0183105,0.0234985,0.0338745,0.0753784,0.0222778,0.0198364,-0.0106812,0.0314331,0.032959
32,0,0.043335,0.00915527,0.0210571,0.0735474,0.0378418,0.0296021,0.0646973,0.043335,0.0244141,0.03479,-0.050354,0.0219727,0.0671387
32,1,0.0259399,0.0238037,0.0134277,0.0244141,0.0268555,0.0271606,0.0158691,0.0231934,0.0280762,0.0469971,-0.000610352,0.0228882,0.0350952
32,2,0.0125122,0.0149536,0.0189209,0.00335693,0.017395,0.0314331,0.0363159,0.0314331,0.0183105,0.0271606,-0.0244141,0.00793457,0.0411987
32,3,0.0213623,0.00579834,0.0271606,-0.000915527,0.0350952,0.0192261,0.0256348,0.0292969,0.0283813,-0.0430298,-0.0152588,0.0259399,0.0137329
32,4,0.0189209,-0.0238037,0.0332642,0.0137329,0.0234985,0.0296021,0.0283813,0.085144,0.0289917,0.03479,-0.0134277,0.0198364,0.0244141
33,0,0.0308228,0.00732422,0.0195312,-0.00274658,0.0411987,0.0326538,0.0283813,-0.00640869,0.0167847,0.0137329,-0.00701904,0.0177002,0.0222778
33,1,-0.0158691,0.0146484,0.0274658,-0.00305176,0.0253296,0.0265503,0.0317383,0.0161743,0.0280762,0.0482178,-0.00457764,0.0363159,0.0350952
33,2,0.0183105,0.072937,0.0201416,0.0143433,0.0320435,0.00915527,0.03479,0.0198364,0.0253296,0.0299072,-0.010376,0.0518799,0.0268555
33,3,0.010376,-0.0479126,0.0296021,0.00915527,0.0820923,0.0363159,0.0292969,0.0183105,0.027771,0.0143433,-0.00640869,0.0131226,0.0219727
33,4,-0.00427246,0.00457764,0.0286865,0.0405884,0.0378418,0.0268555,0.0146484,0.0210571,0.0186157,0.06073,-0.0106812,0.020752,0.0256348
34,0,0.0128174,-0.00671387,0.020752,0.0341797,0.027771,0.0942993,0.0415039,0.0308228,-0.0442505,0.0274658,-0.0177002,0.0387573,0.0259399
34,1,0.0216675,0.0332642,0.022583,0.0396729,0.0341797,0.0280762,0.0369263,0.00793457,0.0344849,-0.00335693,-0.0219727,0.0311279,0.017395
34,2,0.0262451,0.0473022,-0.000305176,0.0439453,0.0747681,0.0137329,0.0238037,0.0234985,0.0286865,0.0244141,-0.00701904,0.0219727,0.0292969
34,3,0.00946045,0.0128174,0,0.0469971,0.0326538,0.0213623,0.0454712,0.00915527,0.0265503,0.0692749,-0.00854492,0.0228882,0.0158691
34,4,0.0125122,-0.00274658,0.00488281,0.0726318,0.0158691,0.0402832,0.0286865,0.00640869,0.0253296,0.0234985,-0.050354,0.012207,0.0088501
35,0,0.0274658,-0.00152588,0.0228882,0.0497437,0.0170898,0.039978,0.0411987,0.0662231,0.00701904,0.00305176,-0.00793457,0.0161743,0.0210571
35,1,0.00488281,0.00335693,0.0112915,0.0546265,-0.022583,0.0292969,0.0234985,-0.0393677,0.0140381,0.0115967,-0.020752,0.00762939,0.0161743
35,2,0.0271606,-0.00152588,0.0119019,0.0527954,0.0357056,0.0350952,0.0137329,0.00274658,0.0140381,-0.00274658,-0.0219727,0.0244141,0.0241089
35,3,0.0100708,0.000305176,0.0360107,0.0543213,0.0189209,0.0415039,-0.00946045,0.0119019,0.0283813,-0.0418091,-0.0250244,0.00793457,-0.032959
35,4,0.0265503,-0.0341797,0.0250244,0.0228882,0.0286865,0.0259399,0.0280762,0.0219727,0.0180054,0.0201416,-0.0250244,-0.0357056,0.020752
36,0,-0.0524902,-0.00274658,0.0088501,-0.0134277,0.0393677,0.0436401,0.0506592,0.0152588,0.0146484,0.0140381,-0.0143433,0.00854492,0.0201416
36,1,0.0170898,0.0280762,0.0228882,0.022583,0.0204468,0.0247192,0.0323486,0.0308228,0.0158691,0.00732422,-0.0164795,0.0415039,0.0152588
36,2,0.0613403,0.0366211,0.0262451,0.00396729,0.0192261,0.0476074,0.032959,0.0299072,0.0241089,0.0177002,-0.0344849,0.00488281,0.0234985
36,3,0.0314331,-0.000305176,-0.00823975,0.00762939,0.0350952,-0.00427246,0.0366211,0.0238037,0.0234985,0.0201416,-0.0195312,0.0100708,0.00579834
36,4,0.0280762,0.0302124,0.0592041,-0.00549316,0.0204468,0.0253296,0.0418091,0.0088501,0.0177002,0.0341797,-0.017395,0.0149536,0.0250244
37,0,-0.039978,0.0808716,0.0128174,0.000915527,0.0262451,0.0268555,0.0872803,0.0222778,0.0213623,0.00915527,0.020752,0.0192261,0.000305176
37,1,0.0131226,0.0857544,0.045166,0.00640869,0.0234985,0.0292969,0.0357056,0.0314331,0.0698853,0.0320435,-0.0180054,0.0506592,0.0186157
37,2,0.0317383,0.0512695,0.0344849,-0.0134277,0.0366211,0.0189209,0.0643921,0.0378418,0.0234985,0.0317383,-0.0372314,0.0115967,0.0317383
37,3,0.0180054,0.0665283,0.0305176,0.0244141,0.010376,0.0326538,0.0320435,0.0628662,0.020752,0.010376,-0.0579834,0.00213623,0.0335693
37,4,0.0125122,0.0463867,0.0180054,0.0305176,0.0241089,0.0427246,0.0299072,0.0350952,0.0109863,0.0247192,-0.00457764,-0.00976562,0.0161743
38,0,0.0106812,0.0335693,0.0134277,0.0164795,0.0253296,0.00915527,0.0460815,0.0387573,0.0772095,0.0259399,-0.017395,-0.020752,0.0140381
38,1,0.0201416,0.0244141,0.0012207,0.0549316,0.0317383,0.0320435,0.0274658,0.0234985,0.00457764,0.0256348,-0.0326538,0.0445557,0.0445557
38,2,0.0186157,0.00732422,0.0430298,0.0372314,0.0473022,0.0357056,0.0421143,0.0198364,0.0244141,0.0323486,-0.0238037,0.0088501,-0.00244141
38,3,0.00183105,0.00915527,0.0189209,0.043335,0.0253296,0.0402832,0.0509644,0.0234985,0.0253296,0.0256348,-0.0518799,0.0152588,0.0134277
38,4,0.0283813,0.000610352,0.0140381,0.0576782,0.0189209,0.0161743,0.0283813,0.0292969,0.0384521,0.0231934,-0.0164795,0.00640869,0.0292969
39,0,0.0671387,0.010376,0.0241089,0.0927734,0.00366211,0.0344849,0.027771,0.0234985,0.0231934,0.0238037,-0.0259399,0.012207,0.0271606
39,1,0.0430298,-0.0088501,-0.00305176,0.0961304,0.0234985,0.0283813,0.0314331,0.0354004,0.0161743,0.0238037,-0.0134277,0.00823975,0.0180054
39,2,-0.000915527,-0.010376,0.00396729,-0.0299072,0.0408936,0.0411987,0.0289917,0.0201416,0.0265503,0.0262451,-0.0250244,0.0146484,0.0234985
39,3,0.0582886,-0.0262451,0.0167847,0.0772095,0.0350952,0.0131226,0.0616455,0.0479126,0.0183105,0.0610352,-0.0189209,0.0158691,0.0509644
39,4,0.0131226,0.0262451,-0.0363159,0.0137329,0.0274658,0.00335693,0.0622559,0.0231934,0.0360107,0.0314331,-0.0238037,0.0134277,0.0170898
40,0,0.0241089,0.0457764,-0.00427246,0.0247192,-0.0375366,-0.00244141,0.0128174,0.0247192,0.0479126,0.0253296,-0.0610352,0.0338745,0.0213623
40,1,0.0256348,0.0271606,0.0164795,0.0186157,0.0244141,0.0335693,0.0378418,0.0283813,0.0183105,0.0253296,-0.00793457,0.020752,-0.027771
40,2,0.0259399,0.0317383,0.0210571,0.0100708,0.0228882,0.0311279,0.0378418,0.0296021,0.0323486,0.0436401,-0.0274658,0.0143433,0.0341797
40,3,0.0320435,0.0393677,0.00457764,0.000610352,0.0134277,0.0253296,0.0375366,0.0262451,0.0201416,0.032959,-0.0250244,0.0479126,0.0115967
40,4,0.00946045,0.0421143,0.0195312,0.0143433,0.0146484,0.0326538,0.0198364,0.0286865,0.0402832,0.0213623,-0.0256348,0.0161743,0.0140381
41,0,0.0189209,0.0531006,0.0564575,0.00518799,0.0210571,0.0186157,0.0201416,0.0296021,0.0146484,0.0302124,-0.0247192,-0.0186157,0.0183105
41,1,0.0296021,0.0500488,0.00366211,0.000915527,0.022583,-0.017395,0.0280762,0.000915527,-0.0137329,0.0106812,-0.0335693,0.000610352,0.0137329
41,2,0.0335693,0.0698853,0.0265503,-0.00915527,0.0689697,0.0296021,0.022583,0.0128174,0.0524902,0.0259399,-0.0213623,0.00335693,0.0137329
41,3,0.0106812,0.0119019,0.0280762,0.0170898,0.0241089,0.00244141,0.0408936,0.0326538,0.0384521,0.0198364,-0.0366211,0.00976562,0.00671387
41,4,0.0488281,0.0146484,0.0164795,0.0210571,0.00701904,0.0320435,0.0268555,0.0119019,0.0396729,0.0271606,-0.0247192,-0.0115967,0.00671387
42,0,0.0164795,-0.0128174,0.0183105,0.00274658,0.0222778,0.0213623,0.0592041,0.0500488,0.0311279,0.0442505,-0.0296021,0.00793457,0.0222778
42,1,0.0149536,0.0506592,0.0384521,0.0384521,-0.0350952,0.015564,0.0292969,0.0665283,0.0244141,0.0149536,-0.0137329,0.017395,0.0143433
42,2,0.0296021,-0.0143433,0.0219727,0.0274658,0.0790405,0.0296021,0.0308228,-0.00946045,0.0332642,0.0149536,-0.0366211,0.0299072,0.0195312
42,3,0.0189209,-0.0305176,0.00335693,0.0418091,0.00793457,-0.0183105,0.0335693,0.0335693,0.0759888,-0.0100708,-0.0183105,0.0128174,0.00793457
42,4,0.0320435,-0.00549316,0.0158691,0.0473022,0.0134277,0.0354004,0.0228882,0.0369263,0.038147,-0.00671387,-0.0183105,-0.00427246,0.0698853
43,0,0.0161743,0.0335693,0.00610352,0.0436401,0.0112915,0.0302124,0.0302124,0.0354004,0.0415039,0.0177002,-0.012207,0.0244141,0.0115967
43,1,0.0213623,0.0241089,0.0167847,0.0204468,0.0204468,0.0314331,0.0128174,0.0375366,0.0308228,0.0421143,-0.0280762,0.00640869,-0.0100708
43,2,0.00915527,0.00305176,0.0259399,0.0402832,0.0228882,0.022583,0.0256348,0.0292969,0.0128174,0.017395,-0.0247192,0.0146484,0.012207
43,3,-0.015564,0.0234985,0.00946045,0.0286865,0.0112915,0.0280762,0.0274658,0.0250244,0.0271606,0.0125122,-0.0271606,0.00457764,0.00854492
43,4,0.000305176,0.0375366,-0.017395,0.0213623,0.0149536,-0.000305176,0.0308228,0.03479,-0.0115967,0.0338745,-0.0274658,-0.0454712,0.00793457
44,0,0.0146484,0.0262451,0.0244141,0.0244141,0.000915527,0.0167847,0.0378418,0.0250244,0.0250244,0.0259399,-0.0131226,-0.0149536,0.0241089
44,1,0.00610352,0.027771,0.0170898,-0.00671387,0.000305176,0.027771,0.0292969,0.101929,0.0286865,0.0369263,-0.0265503,-0.00305176,0.0323486
44,2,0.0302124,0.0305176,0.0338745,-0.00701904,0.0268555,0.00518799,0.0314331,0.0564575,-0.0512695,0.0180054,-0.0238037,0.0259399,0.0204468
44,3,0.0228882,0.0430298,0.0360107,-0.00183105,0.0201416,0.0314331,0.0302124,0.0186157,0.0265503,0.0588989,-0.0164795,0.0265503,0.0158691
44,4,0.0302124,0.020752,0.0311279,-0.000915527,0.0387573,0.020752,0.0192261,-0.00976562,0.0241089,0.0186157,-0.0241089,0.0146484,0.0314331
45,0,0.0253296,0.000305176,0.0292969,-0.0106812,0.0195312,0.0292969,0.0177002,0.0308228,0.0164795,0.0198364,-0.0186157,0.00213623,0.00976562
45,1,0.0128174,0.0418091,0.00915527,-0.000305176,-0.0448608,0.0204468,0.0253296,-0.00274658,0.0274658,0.0149536,-0.0238037,0.0256348,0.0109863
45,2,0.0219727,0.0473022,0.00762939,0.0112915,-0.0238037,0.0244141,0.0323486,0.0375366,0.0323486,0.0268555,-0.0320435,0.0430298,0.0509644
45,3,-0.0314331,0.0656128,0.00946045,0.0210571,0.00579834,0.0274658,0.0210571,0.0265503,0.0210571,0.0210571,-0.00274658,0.0326538,0.0204468
45,4,0.0189209,0.0372314,0.0149536,0.0164795,0.010376,0.0344849,0.0271606,0.0436401,0.0405884,0.0259399,-0.0186157,0.0219727,0.0177002
46,0,0.0180054,0.0201416,0.0112915,0.0231934,0.0109863,0.0506592,0.0088501,0.0363159,0.0265503,0.0192261,-0.0326538,0.0128174,0.0283813
46,1,0.0299072,0.0183105,0.0247192,0.0384521,0.00366211,0.0335693,0.0164795,0.0341797,0.0137329,0.0137329,-0.0268555,0.0140381,0.0170898
46,2,0.0448608,0.00183105,0.0250244,0.0192261,0.0268555,0.0335693,0.0286865,0.0222778,0.032959,0.00518799,-0.00762939,0.0204468,0.0308228
46,3,0.0247192,0.027771,0.0109863,0.0393677,0.0280762,0.0140381,0.0308228,0.022583,0.0418091,0.0262451,-0.0305176,0.0198364,0.0186157
46,4,0.0408936,0.017395,0.0271606,0.0469971,0.00488281,0.0283813,0.0195312,0.0344849,0.0244141,0.038147,-0.0387573,0.0244141,0.0210571
47,0,0.0375366,0.00793457,-0.0344849,0.0418091,0.0213623,0.0405884,0.0262451,0.0213623,0.0802612,0.0238037,-0.0265503,-0.039978,0.0137329
47,1,0.0283813,0.0180054,0.00518799,0.050354,0.0241089,0.0180054,0.0335693,0.0280762,0.0305176,0.0402832,-0.0231934,0.0137329,-0.00274658
47,2,0.0210571,0.0311279,-0.00823975,0.0308228,0.0201416,0.00457764,0.022583,0.022583,0.0137329,0.0326538,-0.0259399,0.0289917,-0.00274658
47,3,0.0167847,0.0088501,0.0112915,0.0204468,0.00976562,0.022583,0.0259399,0.0430298,0.0149536,-0.00152588,-0.0213623,0.0231934,-0.00396729
47,4,0.0292969,-0.00427246,-0.00244141,0.0250244,0.00854492,0.0109863,0.0308228,0.0360107,-0.017395,0.0421143,-0.0335693,0.022583,0.0195312
48,0,0.0350952,-0.0137329,0.00762939,0.00610352,-0.0384521,0.0274658,0.0192261,-0.0253296,-0.00762939,0.0369263,-0.0332642,0.0491333,0.017395
48,1,0.0360107,-0.0238037,0.0112915,0.00366211,0.0241089,0.0167847,0.0231934,-0.0314331,0.0274658,0.0299072,-0.0384521,0.0213623,0.00823975
48,2,0.0845337,0.012207,0.0195312,0.0140381,0.017395,0.0204468,0.0317383,0.0198364,0.0198364,0.0152588,-0.0479126,0.017395,0.0292969
48,3,0.027771,-0.039978,0.0161743,0.00396729,0.0494385,0.0476074,0.0302124,0.0271606,0.0222778,0.0213623,-0.0314331,0.027771,0.0164795
48,4,0.0314331,0.00579834,0.0112915,-0.0012207,-0.00366211,0.0457764,0.0323486,0.0396729,-0.0216675,0.0244141,-0.0350952,-0.010376,0.00549316
49,0,-0.0143433,0.00946045,0.020752,-0.0228882,0.0219727,0.0189209,0.0238037,0.0491333,0.0253296,0.032959,-0.0238037,0.0283813,0.0222778
49,1,0.0286865,0.000915527,0.0216675,-0.00915527,-0.00518799,0.0186157,0.0241089,-0.00305176,0.0131226,0.0241089,-0.0408936,0.0170898,0.0140381
49,2,0.00305176,0.0262451,0.0143433,0.00518799,0.0137329,0.0234985,0.0170898,0.0247192,0.0234985,0.0375366,-0.0445557,0.0149536,0.0146484
49,3,0.0192261,0.0582886,0.0158691,0.0521851,0.0369263,0.0149536,0.0686646,0.0280762,0.0247192,0.0332642,-0.0375366,0.0305176,0.0204468
49,4,0.0378418,0.057373,0.0256348,0.00915527,0.0164795,0.00640869,0.0100708,0.0323486,0.0305176,0.0216675,-0.0268555,0.0125122,0.015564
50,0,0.0341797,0.0170898,0.00640869,0.0186157,0.0369263,0.0161743,0.0164795,0.0466919,0.0582886,0.0228882,-0.0302124,0.0308228,0.0167847
50,1,0.0338745,0.0408936,-0.0250244,0.0140381,0.0112915,0.0152588,0.0274658,0.0375366,0.0302124,0.0289917,-0.0360107,0.0170898,0.0271606
50,2,0.015564,0.0415039,0.0286865,0.0256348,-0.0115967,0.00305176,0.0222778,-0.0195312,0.0317383,0.0289917,-0.0305176,0.0454712,0.0231934
50,3,0.0289917,0.0393677,0.0234985,0.0265503,0.0253296,0.00457764,0.0411987,0.0195312,0.0274658,0.0241089,-0.0427246,0.0247192,0.032959
50,4,0.0247192,0.0335693,0.00396729,0.0167847,0.00640869,0.0167847,0.0958252,0.0244141,0.0238037,0.0198364,-0.0274658,0.0131226,0.0210571
51,0,0.0170898,0.0286865,0.0219727,0.0427246,0.0308228,0.00823975,0.0311279,-0.0448608,0.0283813,0.0241089,-0.0137329,0.0335693,0.0158691
51,1,0.0302124,0.0442505,0.0119019,0.0469971,-0.0238037,0.00213623,0.0219727,0.072937,0.0323486,0.022583,-0.0430298,0.0292969,0.0100708
51,2,0.0308228,0.0201416,0.0201416,0.0372314,0.0158691,0.0189209,0.03479,0.0296021,0.0268555,0.0195312,-0.0268555,0.0296021,0.0228882
51,3,0.0292969,0.0241089,0.0268555,0.0408936,0.015564,-0.0106812,0.0253296,0.0311279,0.0283813,0.0283813,-0.0299072,-0.012207,0.00671387
51,4,0.0415039,0.0216675,-0.0299072,0.0274658,0.0314331,-0.0323486,0.0274658,0.0314331,0.0408936,0.0314331,-0.0369263,0.0253296,0.00915527
52,0,0.0228882,-0.00183105,0.017395,0.0088501,-0.0253296,0.012207,0.0357056,0.0714111,0.0363159,0.0265503,-0.0299072,0.0265503,0.0109863
52,1,-0.00366211,0.0231934,0.00579834,0.0167847,0.0183105,0.0259399,0.0543213,0.0476074,0.0317383,0.0341797,-0.0668335,0.0387573,0.010376
52,2,-0.00701904,0.0198364,0.00640869,0.0561523,0.0137329,0.017395,0.0204468,0.0543213,0.0405884,0.0274658,-0.038147,0.0283813,0.0164795
52,3,0.0253296,0.0296021,0.0109863,-0.0308228,0.022583,0.0100708,0.0280762,0.0314331,0.0363159,0.0286865,-0.0201416,0.0271606,0.0259399
52,4,0.0341797,0.0515747,0.0192261,0.00488281,0.012207,0.0234985,0.0393677,0.0311279,0.0296021,0.0296021,0.00335693,0.0424194,0.0238037
53,0,0.0543213,0.0357056,0.0213623,-0.0109863,0,0.00823975,0.022583,-0.0323486,0.0234985,0.0183105,-0.0210571,0.017395,0.015564
53,1,0.0314331,0.0335693,0.0271606,0.000915527,0.0125122,0.00366211,0.0415039,0.0378418,0.0280762,0.0366211,-0.027771,0.00732422,0.0234985
53,2,-0.0250244,0.0341797,-0.0149536,0.00579834,0.0228882,0.0137329,0.0228882,0.0274658,0.043335,0.0115967,-0.0302124,0.0164795,0.0259399
53,3,0.00762939,0.0210571,0.0158691,0.027771,0.0137329,0.015564,-0.0262451,0.0305176,0.0369263,0.0390625,-0.0244141,0.0198364,0.071106
53,4,0.0384521,0.0372314,0.0210571,0.00396729,0.0210571,0.0115967,-0.000915527,0.0204468,0.0244141,0.0363159,-0.0213623,0.0247192,0.0228882
54,0,0.0387573,0.0219727,0.0317383,0.00793457,0.0112915,0.0158691,0.0283813,0.0427246,0.0967407,0.0234985,-0.0354004,0.0695801,0.00701904
54,1,0.0375366,-0.0189209,0.015564,0.0363159,0.0177002,0.0137329,0.015564,0.0216675,0.0289917,0.0280762,-0.0390625,0.0219727,0.0244141
54,2,0.0302124,0.0192261,0.0271606,0.0384521,0.00946045,0.0134277,0.0189209,0.0140381,0.0854492,0.045166,-0.0497437,-0.0289917,0.0177002
54,3,0.0570679,0.0149536,0.0140381,0.0213623,0.0204468,0.015564,-0.0244141,0.0308228,0.0375366,0.0683594,-0.0466919,0.00213623,0.0448608
54,4,0.0460815,0.0149536,-0.00305176,0.0350952,0.0238037,0.0317383,0.0146484,0.0195312,0.0479126,0.0335693,-0.0338745,0.0384521,0
55,0,0.0299072,0.0152588,0.0146484,0.0314331,0.0119019,0.010376,0.0189209,0.0289917,0.0289917,0.0430298,-0.0292969,0.0436401,0.06073
55,1,0.0369263,-0.0109863,0.0247192,0.0485229,0.0164795,0.0170898,0.0183105,0.017395,0.00183105,0.0262451,-0.0143433,0.0167847,0.0186157
55,2,0.0405884,-0.020752,0.0210571,0.0234985,0.00366211,0.0137329,0.0161743,0.050354,0.0146484,0.0286865,-0.0241089,0.0323486,0.0158691
55,3,0.0341797,-0.0158691,0.0341797,0.0140381,0.0134277,-0.0158691,0.00854492,0.0216675,0.0296021,0.0408936,-0.0219727,0.0653076,0.0299072
55,4,0.0445557,-0.0112915,0.027771,0.0262451,0.0299072,0.0125122,0.0152588,0.0115967,0.0259399,0.017395,-0.0289917,0.0366211,0.0271606
56,0,0.0137329,-0.0125122,0.0210571,0.00518799,0,0.00579834,0.00915527,0.00488281,0.0784302,0.0222778,-0.0314331,0.0186157,0.0317383
56,1,0.0558472,0.0115967,0.0274658,0.0210571,0.0128174,0.0112915,0.00610352,0.0170898,0.0164795,0.0250244,0.00762939,0.0372314,0.0430298
56,2,0.0305176,0.0369263,0.0289917,-0.00579834,0.0250244,0.0115967,0.0238037,0.0247192,0.00396729,0.0283813,-0.0201416,0.0231934,0.0238037
56,3,0.0415039,0.0204468,0.0292969,-0.00579834,0.0305176,0.0210571,0.0332642,0.017395,0.0228882,-0.0393677,-0.0314331,0.0289917,-0.0296021
56,4,0.0387573,0.0717163,0.0213623,-0.00671387,0.00762939,0.0198364,0.0186157,0.0201416,0.0253296,0.00854492,-0.0314331,0.0274658,0.0177002
57,0,0.0366211,0.116577,0.0152588,-0.0262451,0.0177002,0.0186157,0.0448608,0.0189209,0.022583,0.055542,-0.0274658,0.0527954,0.0744629
57,1,-0.00946045,0.103149,0.0256348,-0.067749,-0.00671387,0.00671387,-0.00976562,0.00640869,0.0271606,0.00488281,-0.00732422,0.027771,-0.00335693
57,2,0.0283813,0.0506592,0.0302124,0.00457764,0.0201416,0.0143433,0.012207,0.0204468,0.0628662,0.000915527,-0.0158691,0.0735474,0.0311279
57,3,0.0457764,0.0250244,0.0213623,0.0125122,0.00854492,0.00946045,0.0192261,0.0326538,0.0485229,0.0180054,-0.0204468,0.0115967,0.0241089
57,4,0.0128174,0.0354004,-0.00305176,0.00793457,0.0201416,0.0393677,0.0189209,0.0119019,0.0280762,0.0201416,-0.0250244,0.0192261,0.0265503
58,0,0.0311279,0.0650024,0.0238037,0.0158691,0.0192261,0.00915527,0.00549316,0.0180054,0.0189209,0.0372314,-0.0253296,0.0314331,0.0234985
58,1,0.0363159,0.13916,0.0271606,0.0088501,0.0683594,0.012207,0.00701904,0.0375366,0.0448608,0.0292969,-0.0308228,0.0241089,0.0299072
58,2,0.0372314,0.0344849,0.0241089,0.0283813,0.0131226,0.0518799,0.0265503,0.0109863,0.0302124,0.0280762,-0.0546265,0.0204468,0.0320435
58,3,0.0360107,0.09552,0.0299072,0.0292969,-0.0369263,0.0192261,0.0088501,0.0189209,0.0125122,0.0311279,-0.0332642,0.0332642,0.0476074
58,4,0.0311279,0.0357056,0.0656128,0.0250244,0.0137329,0.0454712,0.0231934,0.0128174,-0.0250244,0.0088501,-0.0170898,-0.0317383,0.0302124
59,0,0.0259399,0.0357056,0.0192261,0.0436401,0.0161743,0.027771,0.0167847,0.0369263,0.0256348,0.0234985,-0.0296021,0.0271606,0.0262451
59,1,0.0360107,0.0259399,0.0396729,0.0421143,0.0143433,0.0592041,0.0119019,0.0149536,0.00549316,0.00732422,-0.0274658,0.0454712,0.0088501
59,2,0.0350952,0.0183105,0.0256348,0.0387573,0.00610352,0.0338745,0.0646973,0.0228882,-0.00488281,-0.0231934,-0.0378418,0.0375366,0.0280762
59,3,0.00610352,0.0100708,0.0213623,0.0485229,0.017395,0.0341797,0.0213623,0.0146484,0.0167847,0.00579834,-0.0299072,0.0332642,0.0396729
59,4,0.0366211,0.03479,0.0177002,0.0164795,-0.0262451,0.00976562,0.0189209,0.038147,0.0274658,0.0473022,-0.0286865,0.0393677,0.000305176
60,0,0.0637817,0.0402832,0.0180054,0.0231934,0.0149536,0.020752,0.0180054,0.0186157,0.0213623,0.0268555,-0.0341797,0.0256348,0.0271606
60,1,0.0143433,-0.0213623,0.0305176,0.0109863,0.0140381,0.0268555,0.0177002,0.0198364,0.0360107,0.0106812,-0.0238037,0.0250244,0.0308228
60,2,0.0201416,0.0228882,0.0164795,0.015564,0.0012207,0.0442505,0.0170898,0.0244141,0.0195312,0.00610352,-0.0317383,0.0201416,0.017395
60,3,0.0311279,0.0476074,0.0170898,-0.00610352,0.0177002,0.0204468,0.0216675,0.0158691,0.022583,0.0271606,-0.0286865,0.0250244,0.0335693
60,4,0.0247192,0.0253296,0.0811768,0.00366211,0.017395,0.0598145,0.0210571,0.00457764,0.0323486,0.0186157,-0.0296021,0.0152588,0.0195312
61,0,0.0323486,0.0213623,0.0686646,0.00579834,0.0152588,0.0473022,0.017395,0.0280762,0.0198364,0.0344849,-0.0320435,0.039978,0.0354004
61,1,0.0360107,0.0341797,0.0152588,-0.00152588,0.00946045,-0.0393677,0.0238037,0.0143433,0.0189209,0.0198364,-0.0186157,0.0134277,0.043335
61,2,0.0311279,0.0100708,0.0247192,-0.00946045,0.0210571,0.0292969,0.0274658,0.0137329,0.0656128,0.0274658,-0.0341797,0.0634766,0.038147
61,3,0.0280762,-0.0161743,0.0259399,0.012207,-0.00762939,0.017395,0.0140381,-0.0463867,0.0146484,0.0134277,-0.0201416,0.0238037,0.0473022
61,4,0.0186157,-0.0170898,0.0189209,0.0222778,0.0250244,0.00976562,0.0485229,0.0158691,0.0115967,0.00671387,-0.0439453,0.0393677,0.0479126
62,0,0.0204468,0.0238037,0.0256348,0.00701904,0.0189209,0.0231934,0.0167847,0.00732422,0.0158691,0.0241089,-0.0262451,0.0469971,0.0253296
62,1,0.0411987,0.0292969,0.03479,0.0363159,0.0119019,0.0527954,0.00579834,0.00183105,0.0152588,0.0338745,-0.0292969,0.057373,0.0588989
62,2,0.0372314,0.00305176,0.0335693,0.0509644,0.017395,0.0140381,0.0112915,0.0241089,0.012207,0.0201416,0.0152588,0.0369263,0.0320435
62,3,-0.017395,0.00640869,0.0311279,0.0360107,0.0317383,0.0140381,-0.00183105,0.0167847,0.00701904,0.0335693,-0.0186157,0.0308228,0.0271606
62,4,0.0360107,-0.00610352,0.0286865,0.0534058,0.0268555,-0.00579834,0.00762939,0.00946045,0.0408936,0.027771,-0.000610352,0.0540161,0.0445557
63,0,0.0238037,-0.000915527,0.0234985,0.0534058,-0.022583,0.00976562,0.0112915,-0.0466919,0.0128174,0.0308228,-0.0427246,0.0247192,0.0283813
63,1,-0.0286865,0.0125122,0.0317383,0.0836182,0.0186157,0.00518799,0.0799561,0.00762939,0.0231934,0.0708008,-0.0350952,0.0299072,0.0350952
63,2,0.0280762,0.0430298,0.0280762,0.0497437,0.0265503,0.0149536,0.00732422,0.0164795,0.0241089,0.0292969,-0.0308228,0.0256348,0.0445557
63,3,0.055542,0.050354,0.00579834,0.0341797,0.0198364,0.0268555,0.0140381,0.012207,0.0167847,0.0152588,-0.0500488,0.0308228,0.0390625
63,4,0.0320435,0.115051,0.0561523,0.0228882,0.0186157,0.017395,0.0265503,0.00396729,0,0.0378418,-0.0296021,0.0442505,0.0201416
64,0,0.10498,0.0823975,0.0402832,0.0393677,0.0012207,0.0177002,0.0192261,0.00732422,0.00762939,0.0109863,-0.0323486,0.00976562,0.0576782
64,1,0.0311279,0.0491333,0.0448608,0.0128174,0.00701904,0.0161743,0.0512695,0.0143433,0.0259399,-0.0109863,-0.0363159,0.0292969,0.0320435
64,2,0.038147,0.038147,0.00305176,0.0167847,0.0439453,0.0244141,0.010376,-0.0152588,0,0.0146484,-0.0488281,0.0186157,0.0314331
64,3,0.0317383,0.0439453,0.0201416,0.00793457,0.0143433,0.00701904,0.0115967,0.00732422,0.00183105,0.0189209,-0.0335693,0.0439453,0.0286865
64,4,0.0366211,0.0247192,0.0286865,0.015564,0.0180054,0.0216675,0.00427246,0.00610352,0.00427246,0.0180054,0,0.0228882,0.0271606
65,0,0.0247192,0.0357056,0.0198364,0.0180054,0.0222778,0.00183105,0.0213623,0.0137329,0.0146484,0.0283813,-0.0354004,0.0259399,0.0311279
65,1,0.0308228,0.0247192,0.0396729,0.00396729,0.0286865,0.0244141,0.0134277,0.00366211,-0.0387573,0.0250244,-0.0338745,0.0369263,0.0357056
65,2,0.0280762,0.0231934,0.0265503,0.032959,0.0213623,0.020752,0.03479,0.0265503,0.0283813,0.0177002,-0.0192261,0.0280762,0.0204468
65,3,0.0286865,-0.0195312,0.0363159,0.0177002,-0.020752,0.0411987,0.0149536,-0.0366211,0.00915527,0.0238037,-0.0241089,0.020752,0.022583
65,4,0.0619507,0.022583,0.0323486,0.0335693,0.0106812,0.0274658,0.0088501,0.0247192,0.0131226,0.0302124,-0.0140381,0.0418091,0.0338745
66,0,0.0335693,0.0204468,0.0216675,0.038147,0.0311279,0.0152588,0.0131226,0.0204468,0.0134277,-0.0308228,-0.0302124,0.0360107,-0.0109863
66,1,0.0274658,0.0274658,0.0323486,0.0445557,0.0268555,0.0247192,0.00854492,0.020752,0.0253296,0.0360107,-0.0241089,0.0448608,0.0323486
66,2,0.0274658,0.0134277,0.0610352,0.0350952,0.0393677,0.0695801,0.0296021,0.0146484,0.0378418,0.0253296,-0.0231934,0.00701904,0.0421143
66,3,0.0341797,0.0244141,0.0311279,0.0405884,0.0216675,0.0210571,0.0177002,0.0253296,0.0238037,0.0338745,-0.0286865,0.0234985,0.0909424
66,4,0.0201416,0.0280762,0.0283813,0.106201,0.010376,0.0192261,0.0350952,0.0115967,0.0088501,0.022583,-0.0323486,0.0143433,0.0341797
67,0,0.0390625,0.0164795,0.017395,0.0488281,0.0320435,0.0213623,0.0192261,0.0204468,0.0244141,-0.03479,-0.0286865,0.022583,0.0439453
67,1,0.0616455,0.00549316,0.0161743,0.0793457,0.0198364,0.0411987,-0.0360107,0.0131226,0.0161743,0.00457764,-0.010376,0.0274658,0.0668335
67,2,0.0299072,-0.00427246,-0.0320435,0.0427246,0.0250244,0.0259399,0.0219727,0.0363159,0.020752,0.0216675,-0.0418091,0.0265503,0.03479
67,3,0.0134277,0.0189209,0.0195312,0.050354,0.0195312,0.0201416,0.0241089,0.038147,0.0280762,-0.000305176,0.00305176,0.0201416,0.0259399
67,4,0.0213623,0.0323486,0.0469971,0.0311279,0.0250244,0.0442505,0.0128174,0.00244141,-0.00152588,0.0299072,-0.0140381,0.0198364,0.0396729
68,0,0.0280762,0.0180054,0.0332642,0.0299072,0.0234985,0.0183105,0.0326538,0.0546265,0.0167847,0.0192261,-0.0350952,0.0274658,0.0308228
68,1,0.0265503,0.0125122,0.0473022,0.0274658,0.0143433,-0.0302124,0.0158691,0.0201416,0.0189209,0.0323486,-0.0286865,0.0308228,0.0216675
68,2,0.0201416,0.0143433,0.0570679,0.00762939,0.0250244,-0.000915527,0.0170898,0.0186157,0.00549316,0.0128174,-0.0146484,0.0512695,0.0305176
68,3,0.0210571,0.00762939,0.0369263,-0.0323486,0.0274658,0.015564,0.0192261,0.020752,0.0231934,0.0180054,-0.0308228,0.0125122,0.0363159
68,4,0.0189209,0.0262451,0.00701904,0.0186157,0.0170898,0.0100708,0.0198364,-0.0167847,0.0274658,0.0222778,-0.0219727,0.0390625,0.0106812
69,0,0.0125122,0.0247192,0.0292969,-0.00183105,0.0265503,0.0289917,0.0317383,0.0128174,0.00549316,0.0292969,-0.0274658,0.0140381,0.0259399
69,1,0.020752,0.03479,0.0271606,-0.00671387,0.027771,0.0115967,0.0274658,0.078125,0.0189209,0.00518799,-0.0192261,0.0387573,0.0363159
69,2,0.0259399,0.0967407,0.0314331,0.00152588,0.00549316,0.020752,0.0234985,0.0247192,0.0250244,0.0216675,-0.0320435,0.032959,0.0250244
69,3,0.0201416,0.0775146,0.0244141,0.00762939,0.0579834,0.0140381,0.0265503,0.022583,0.0323486,0.0247192,-0.0534058,0.0195312,0.0247192
69,4,0.0827026,0.0537109,0.0411987,0.112305,0.0430298,0.0286865,0.0466919,0.0134277,0.0143433,0.027771,0.0219727,0.0292969,-0.0320435
70,0,0.0384521,0.0350952,0.0341797,0.00854492,0.032959,0.0289917,0.0152588,0.000915527,-0.00335693,-0.0274658,-0.0283813,0.0430298,0.0595093
70,1,0.0222778,0.0128174,0.0411987,0.0350952,0.022583,0,0.0228882,-0.00549316,0.015564,0.0131226,-0.022583,0.0286865,0.038147
70,2,0.0158691,0.0167847,0.0311279,0.0274658,0.0418091,0.0222778,0.09552,-0.00488281,0.0198364,0.0363159,-0.0311279,0.0378418,0.0366211
70,3,0.0244141,-0.0421143,0.0314331,0.0344849,-0.00671387,0.00701904,0.0253296,0.0454712,0.0201416,0.022583,-0.0357056,0.017395,0.0125122
70,4,0.0231934,-0.00305176,0.0369263,0.0421143,0.0164795,0.0491333,0.0244141,0.0283813,0.0714111,0.0219727,-0.0299072,0.0280762,0.0201416
71,0,0.0234985,0.0183105,0.03479,0.0469971,0.0286865,0.0231934,0.0363159,0.0152588,0.0131226,-0.00732422,-0.0253296,0.0265503,0.0366211
71,1,0.020752,0.00762939,0.0753784,0.0387573,0.0274658,0.0216675,0.0262451,0.0262451,-0.00457764,0.0146484,-0.0228882,0.0311279,0.0283813
71,2,0.0088501,0.00152588,0.00579834,0.0372314,0.032959,-0.032959,0.0222778,0.00854492,-0.0405884,-0.000915527,-0.022583,0.0137329,0.03479
71,3,0.0183105,0.0231934,0.0247192,0.0482178,0.0344849,0.0473022,0.0234985,0.010376,0.0201416,-0.00244141,-0.0253296,0.0219727,0.0289917
71,4,0.0302124,0.0231934,0.0427246,0.0314331,0.0274658,0.000610352,0.0274658,0.0231934,-0.0238037,-0.0012207,-0.0323486,0.0228882,0.0341797
72,0,0.0167847,-0.00457764,0.03479,0.0372314,0.0820923,0.0201416,0.0170898,0.0201416,0.022583,0.0213623,-0.0418091,0.0274658,0.0265503
72,1,0.0170898,0.0421143,0.0167847,0.0299072,0.0311279,0.0213623,-0.00610352,0.00457764,0.00549316,0.00274658,-0.0393677,0.0149536,0.0265503
72,2,0.0421143,-0.000915527,0.0280762,0.0177002,0.0759888,0.027771,0.0119019,0.0247192,0.0286865,0.0289917,-0.0247192,0.0112915,0.0308228
72,3,0.0180054,0.0527954,0.0390625,0.0177002,0.0363159,0.0427246,0.0259399,-0.000610352,0.0671387,0.0201416,-0.0125122,-0.00854492,0.0384521
72,4,0.0314331,0.0576782,0.0323486,0.0186157,0.0308228,0.0308228,0.00854492,0.0137329,0.0131226,-0.0411987,-0.0292969,0.0219727,0.0762939
73,0,0.0366211,0.0131226,0.0265503,0.050354,0.0357056,0.0198364,-0.0238037,0.017395,0.00671387,0.0744629,-0.0366211,0.0491333,-0.0372314
73,1,0.0143433,0.0271606,0.0442505,0.00823975,0.0299072,0.0350952,0.0228882,0.0286865,0.0125122,0.0289917,-0.0119019,0.00244141,0.0323486
73,2,-0.0100708,0.0308228,0.0238037,0.0582886,0.0244141,0.0411987,0.03479,0.0140381,0.0131226,0.0289917,-0.0396729,0.0183105,0.0219727
73,3,0.0180054,0.0405884,0.0280762,0.0231934,0.0170898,0.0201416,0.0189209,0.0726318,0.0210571,0.0119019,-0.0592041,0.032959,0.0198364
73,4,0.0161743,0.0369263,0.0366211,0.0509644,0.0354004,0.0234985,0.0296021,0.00946045,0.00915527,-0.0210571,-0.00152588,0.0259399,-0.0442505
74,0,0.022583,0.0250244,0.0854492,0.0408936,0.0320435,0.0280762,0.0292969,0.0140381,-0.0531006,0.00762939,-0.0234985,0.0744629,0.0296021
74,1,0.0289917,0.00305176,0.00671387,0.0485229,0.0115967,0.00579834,0.0262451,0.0112915,0.0363159,0.0341797,-0.0271606,0.0189209,0.0436401
74,2,-0.00457764,0.0238037,0.0445557,0.0344849,0.0250244,0.0253296,0.0357056,0.0128174,0.0674438,0.0143433,-0.0283813,0.012207,0.0189209
74,3,0.0119019,0.0250244,0.0579834,0.0527954,0.0387573,0.0183105,0.0335693,0.0137329,0.0128174,0.0341797,-0.0335693,0.0244141,0.0378418
74,4,0.0430298,0,0.0201416,0.00274658,0.0164795,0.055542,0.0411987,0.0357056,0.00915527,0.0698853,-0.0622559,0.0268555,0.0949097
75,0,0.0296021,0.0558472,0.0180054,0.0619507,0.0616455,0.0363159,0.0299072,0.00610352,0.00518799,0.0183105,-0.022583,0.0164795,0.0140381
75,1,0.0131226,0.0183105,-0.0320435,0.067749,0.0302124,0.0466919,0.0244141,0.0195312,0.0286865,0.0317383,-0.0253296,0.0201416,0.0299072
75,2,0.0219727,0.0140381,0.0323486,0.0543213,0.0247192,0.0183105,0.0357056,0.0268555,0.0204468,0.0186157,-0.0219727,-0.00823975,0.0241089
75,3,0.0286865,-0.00366211,0.0137329,0.0402832,-0.0311279,0.0112915,0.0259399,-0.0244141,0.00701904,0.0363159,-0.0164795,0.0189209,0.0250244
75,4,0.0131226,0.0128174,0.0164795,0.0494385,0.0387573,0.0512695,0.0357056,0.0271606,0.0109863,0.0265503,-0.0170898,0.0195312,0.0216675
76,0,0.0216675,0.0131226,0.0238037,0.0326538,0.0314331,0.0360107,0.0546265,0.0454712,0.0238037,0.00610352,-0.0363159,0.0210571,0.020752
76,1,0.0454712,0.0280762,0.0326538,0.039978,0.0479126,0.0485229,0.0390625,0.0186157,0.0234985,-0.00701904,-0.00793457,0.0158691,0.0231934
76,2,0.0140381,0.0457764,0.0527954,0.0262451,0.0259399,0.0350952,0.020752,0.0241089,0.0271606,0.00732422,-0.00732422,-0.0189209,0.0262451
76,3,0.0204468,0.0332642,0.0164795,0.0241089,0.0323486,0.0457764,0.0247192,0.0653076,0.015564,0.0256348,-0.0128174,0.00854492,0.0210571
76,4,0.00946045,0.0271606,0.0286865,0.022583,0.0198364,0.0354004,0.0350952,0.0213623,0.0189209,-0.00732422,-0.0180054,0.0262451,0.0256348
77,0,0.0259399,0.0320435,0.0158691,0.00427246,0.0341797,0.0216675,0.032959,0.0247192,-0.0164795,0.0189209,-0.0238037,0.017395,0.0140381
77,1,0.0228882,0.0445557,-0.0244141,0.0149536,0.0189209,0.00823975,0.015564,0.022583,-0.00183105,0.027771,-0.0137329,0.0250244,0.0262451
77,2,0.0296021,0.0228882,0.0210571,0.0158691,0.0302124,0.0332642,0.0167847,0.0012207,0.00946045,0.0106812,-0.022583,0.0192261,0.0274658
77,3,0.0161743,0.020752,0.0177002,0.0369263,0.015564,0.0296021,0.0283813,0.0180054,-0.00213623,-0.0115967,-0.0115967,0.045166,0.0634766
77,4,0.017395,0.0289917,0.0308228,-0.0314331,0.039978,0.0323486,0.043335,0.0219727,0.00457764,0.0244141,-0.00427246,0.00305176,0.0131226
78,0,0,0.0274658,0.022583,0.0338745,0.0317383,0.0384521,0.0378418,0.0231934,0.0363159,0.0143433,-0.0189209,0.0601196,0.0286865
78,1,0.00701904,-0.0216675,0.0234985,0.0320435,0.0680542,0.0421143,0.0286865,0.0378418,0.0177002,0.0119019,-0.0183105,0.0149536,0.0158691
78,2,0.0106812,-0.0222778,0.0402832,0.043335,0.0354004,0.0369263,0.020752,0.0140381,-0.00335693,0.0216675,-0.0125122,0.0198364,0.0265503
78,3,0.0140381,0.0671387,0.0256348,0.0372314,0.0622559,0.0457764,0.0299072,0.0308228,0.015564,0.0305176,-0.0198364,0.0335693,0.0286865
78,4,0.0106812,0.00793457,0.0378418,0.0466919,0.0167847,0.039978,0.0350952,0.0302124,0.0119019,0.0109863,-0.0302124,-0.0378418,0.0198364
79,0,0.0311279,0.0183105,0.0775146,0.0466919,0.0210571,0.0857544,0.0262451,0.0280762,0.0317383,0.0335693,-0.0204468,0.0146484,0.0238037
79,1,0.015564,0.00183105,0.0289917,0.0448608,0.0247192,0.0357056,0.0317383,0.038147,0.00396729,0.0286865,-0.0543213,0.0088501,0.0244141
79,2,0.0164795,0.0128174,0.00610352,0.0628662,0.00976562,-0.00335693,0.0393677,0.0198364,0.0323486,0.0253296,-0.00305176,0.0222778,0.0137329
79,3,0.0256348,0.0262451,-0.0115967,0.0292969,0.012207,0.03479,0.0637817,0.062561,-0.00274658,0.0186157,-0.0247192,0.0238037,0.0299072
79,4,-0.0088501,0.00427246,-0.00549316,0.00518799,0.0335693,0.0305176,0.00152588,0.0213623,0.0100708,0.00244141,-0.0527954,0.00457764,0.0238037
80,0,0.03479,-0.0256348,0.0158691,0.0430298,0.0354004,0.0448608,0.0869751,0.0299072,0.000305176,0.0491333,-0.0247192,0.00823975,0.0668335
80,1,0.0201416,-0.0112915,0.0158691,0.0308228,0.03479,0.0308228,0.0317383,0.0186157,0.0128174,-0.0140381,-0.0204468,0.0192261,0.0088501
80,2,0.027771,-0.0256348,0.0280762,0.0274658,0.0259399,0.0369263,0.0570679,0.020752,0.0195312,-0.0396729,-0.0167847,-0.00518799,0.0238037
80,3,0.00976562,-0.027771,0.0210571,0.0198364,-0.0213623,0.0366211,0.0427246,0.0430298,0.0241089,0.0292969,-0.0262451,0.0244141,-0.00152588
80,4,0.0149536,-0.0241089,0.0100708,-0.00610352,0.0222778,0.0372314,0.0463867,0.0405884,0.0311279,0.020752,-0.0292969,0.0115967,0.00305176
81,0,0.0198364,-0.0088501,0.0201416,0.00762939,0.0238037,0.0308228,0.0238037,0.0296021,0.0234985,0.0234985,0.0183105,0.0213623,0.012207
81,1,0.0418091,-0.00396729,0.0125122,0.00549316,0.0341797,0.0180054,0.0350952,0.038147,0.0311279,0.0250244,-0.0262451,0.0152588,0.00915527
81,2,0.0204468,0.0125122,0.0204468,0.0134277,0.050354,0.010376,0.0384521,0.0427246,0.0219727,0.0228882,-0.0299072,0.0268555,-0.0109863
81,3,0.00518799,0.0634766,0.020752,0.0140381,0.0332642,0.03479,0.0457764,0.0213623,0.0311279,0.0189209,-0.0363159,0.0231934,0.03479
81,4,0.0119019,0.032959,-0.0222778,0.0247192,0.0320435,0.0598145,0.0131226,0.0265503,0.0289917,0.0195312,-0.0299072,0.0137329,0.00671387
82,0,0.0115967,0.0540161,0.00274658,0.0268555,0.0283813,-0.000610352,0.088501,0.0271606,0.0280762,-0.000610352,-0.00549316,0.0204468,0.0131226
82,1,0.0253296,-0.0241089,0.00213623,0.0311279,0.0543213,0.032959,0.0341797,0.0244141,0.0222778,0.010376,-0.0286865,0.012207,0.0183105
82,2,0.0332642,0.0100708,0.0152588,0.045166,0.0195312,0.0280762,-0.00518799,0.0296021,0.0418091,-0.0280762,-0.00427246,0.0164795,0.0134277
82,3,0.0247192,0.0323486,0.0314331,0.0442505,0.0335693,0.0390625,0.032959,0.0820923,0.0350952,0.0177002,0.0186157,0.00396729,0.0106812
82,4,0.0253296,0.0177002,0.0286865,0.0442505,0.0210571,0.0131226,0.0469971,0.0561523,0.0354004,0.020752,0.0195312,0.00640869,0.012207
83,0,0.00274658,0.0311279,0.0219727,0.0357056,0.0369263,0.03479,0.0561523,-0.015564,0.0265503,0.0146484,-0.0164795,0.0192261,-0.000915527
83,1,0.0177002,0.115356,0.0299072,0.0411987,0.0845337,0.0378418,0.0418091,0.0860596,0.0280762,0.0262451,-0.0262451,0.0219727,0.0186157
83,2,0.0216675,0.0473022,0.0161743,0.0384521,0.022583,0.0186157,0.0186157,0.0259399,0.0198364,0.0668335,-0.0106812,0.0100708,0.032959
83,3,0.0161743,0.0460815,0.0262451,0.0396729,0.0350952,0.0192261,0.0289917,0.0219727,0.0149536,0.0326538,-0.0131226,0.0372314,0.00946045
83,4,0.0674438,-0.00793457,-0.0012207,0.0302124,0.0299072,0.045166,0.0234985,0.0485229,0.00427246,0.0228882,-0.0119019,0.0216675,0.0238037
84,0,0.0158691,0.00854492,0.0363159,0.0183105,0.0228882,0.0811768,0.0436401,0.0222778,0.0546265,0.0289917,0.00427246,0.00732422,0.0247192
84,1,0.0323486,0.00152588,0.0119019,-0.00549316,0.0247192,0.0616455,0.0476074,0.0317383,0.0292969,0.0537109,-0.0213623,0.00366211,0.00793457
84,2,0.0131226,-0.010376,0.00671387,0.0241089,0.0234985,0.0372314,0.012207,0.0201416,0.0268555,0.0283813,-0.00793457,-0.00366211,-0.0296021
84,3,0.0149536,0.0183105,-0.0341797,0.00976562,0.0213623,0.0283813,0.0320435,0.0265503,0.0256348,0.00427246,-0.0250244,0.0332642,0.0372314
84,4,0.102539,0.00518799,0.0186157,0.00488281,0.0360107,-0.0134277,-0.0125122,0.0131226,0.0204468,-0.0314331,-0.0466919,0.0177002,0.00488281
85,0,0.0210571,-0.0131226,0.0436401,-0.0357056,0.0274658,-0.0119019,0.0262451,0.0335693,0.0500488,0.0375366,-0.0268555,0.0668335,0.0137329
85,1,0.0863647,0.0231934,0.0100708,-0.0582886,0.032959,0.0143433,0.0292969,0.0427246,0.0170898,0.0250244,-0.0088501,0.0125122,0.0201416
85,2,0.0241089,0.0415039,0.0268555,-0.00732422,-0.0170898,0.0256348,0.027771,0.0604248,0.0244141,0.0186157,-0.0219727,0.0195312,0.0137329
85,3,0.0167847,0.0680542,0.0280762,0.00854492,0.0363159,0.0195312,0.0296021,0.0311279,0.0292969,0.0262451,0.00549316,0.0183105,0.0289917
85,4,0.0088501,0.039978,-0.0106812,0.0152588,0.0299072,0.062561,0.0332642,0.0366211,-0.020752,0.0283813,-0.0311279,0.0854492,0.0262451
86,0,0.0195312,0.0872803,0.00274658,0.00183105,0.0283813,0.0112915,0.0219727,0.0289917,0.0424194,0.0241089,-0.0274658,-0.020752,0.0302124
86,1,0.0112915,0.085144,0.0332642,0.0131226,0.0292969,0.0396729,0.0354004,0.0286865,0.032959,0.0360107,-0.0354004,0.0167847,0.078125
86,2,0.0350952,0.0540161,-0.00152588,0.0186157,0.0140381,0.0292969,0.0561523,0.00854492,0.0384521,0.0170898,-0.055542,0.0378418,0.017395
86,3,0.0106812,0.0198364,0.057373,0.0341797,0.0280762,0.0411987,0.0311279,0.038147,0.0152588,0.0250244,-0.0274658,0.0109863,0.0201416
86,4,-0.062561,-0.000305176,-0.00793457,0.00854492,0.0341797,0.0296021,0.0244141,0.0314331,0.0253296,0.03479,-0.0256348,0.0219727,0.0152588
87,0,-0.03479,0.0314331,0.0143433,0.0488281,0.022583,0.0216675,0.0210571,0.0314331,0.0271606,0.0363159,-0.0088501,0.020752,0.0106812
87,1,0.0598145,0.0137329,0.0134277,0.0732422,0.022583,0.0299072,0.0222778,0.0244141,0.0299072,0.0265503,-0.0509644,0.0180054,0.0170898
87,2,-0.00732422,0.00732422,0.0115967,-0.0192261,0.0244141,0.0219727,-0.0228882,0.027771,0.0271606,-0.0289917,-0.0335693,0.0134277,-0.0234985
87,3,0.0100708,0.0100708,0.00396729,0.027771,0.012207,0.0311279,0.0247192,0.03479,0.022583,0.0167847,-0.0216675,0.0265503,0.0265503
87,4,0.0192261,0.0506592,0.0311279,0.0314331,0.0204468,0.0201416,0.0323486,0.0354004,0.0427246,0.045166,-0.0216675,-0.0201416,-0.0177002
88,0,0.0125122,0.00701904,0.0137329,0.038147,0.0238037,0.0247192,0.0372314,0.0234985,0.0213623,-0.020752,-0.0128174,0.0296021,0.00457764
88,1,0.0454712,-0.00915527,0.00518799,0.0436401,0.0445557,0.0296021,0.0360107,0.0741577,0.0396729,0.0280762,-0.0265503,0.0146484,0.00610352
88,2,0.0219727,-0.010376,0.0177002,0.0384521,0.022583,0.0198364,0.0424194,0.0518799,0.0180054,0.0320435,-0.0241089,0.0149536,0.0012207
88,3,0.00732422,-0.0241089,0.0177002,0.0415039,0.0247192,0.0537109,0.0363159,0.0363159,0.0662231,0.0253296,-0.012207,0.00579834,0.00915527
88,4,0.0088501,-0.0180054,0.017395,-0.00457764,0.0210571,0.0305176,0.0238037,0.0402832,0.0830078,0.0415039,-0.0350952,-0.0201416,-0.000305176
89,0,0.00762939,0.0216675,0.0482178,-0.0247192,0.0146484,0.072937,0.0668335,0.0247192,-0.0106812,0.0140381,-0.0286865,-0.00732422,0.0167847
89,1,0.0186157,0.0259399,0.0219727,-0.017395,-0.0256348,0.0335693,0.0323486,0.0363159,0.0164795,0.0256348,-0.0289917,0.0366211,0.00671387
89,2,0.0231934,0.0421143,0.0161743,-0.00671387,0.00671387,0.0289917,0.0344849,0.0283813,0.0286865,0.0430298,-0.0280762,0.0195312,0.00793457
89,3,0.0183105,0.0140381,0.0286865,-0.00915527,0.0161743,0.0189209,0.0421143,0.0210571,0.0228882,0.0457764,-0.0601196,0.0140381,0.0140381
89,4,0.0268555,0.00610352,0.0427246,-0.00823975,0.0286865,0.0378418,0.0561523,0.0408936,0.0201416,0.0363159,-0.0247192,-0.0222778,0.00244141
90,0,0.0296021,0.0765991,0.0344849,-0.000610352,-0.0469971,0.0216675,0.0247192,0.0653076,0.0247192,0.0219727,-0.0326538,0.0119019,0.0186157
90,1,0.0311279,-0.022583,0.0210571,0.0296021,0.0256348,0.00579834,0.0366211,0.0259399,0.022583,0.0262451,-0.0296021,0.0146484,0.0201416
90,2,0.0259399,0.0177002,0.0186157,0.0323486,0.0112915,-0.0140381,0.0286865,0.0387573,0.0662231,0.0234985,-0.0366211,0.022583,0.00640869
90,3,0.0247192,0.0469971,0.0250244,0.0448608,0.0210571,0.0125122,0.03479,0.0244141,0.0463867,0.0390625,-0.0323486,0.00762939,-0.0299072
90,4,0.022583,0.0280762,-0.00244141,0.038147,0.0216675,0.0476074,0.0161743,0.0317383,0.0341797,0.000915527,-0.032959,0.0387573,0.0296021
91,0,0.0192261,0.0311279,0.0119019,0.0366211,0.0238037,0.0177002,0.0323486,0.0253296,0.0390625,-0.0375366,-0.0415039,0.0323486,0.0543213
91,1,0.0308228,0.017395,0.0216675,-0.0192261,0.0183105,0.020752,0.0219727,0.0341797,0.0576782,0.0183105,-0.0189209,0.0482178,-0.00335693
91,2,0.0308228,0.0131226,0.0125122,0.0265503,0.00610352,0.0268555,0.0357056,0.0357056,0.03479,0.0408936,-0.0335693,0.0100708,0.000610352
91,3,0.0180054,0.0292969,0.0570679,0.0299072,0.0192261,0.0527954,0.0222778,0.0149536,0.0311279,0.0253296,-0.0308228,-0.0244141,0.0201416
91,4,0.0247192,0.0372314,0.017395,0.020752,0.020752,0.00701904,0.0234985,0.0311279,0.0344849,0.0228882,-0.0308228,-0.038147,0.0274658
92,0,0.0192261,0.0256348,0.0222778,0.0177002,0.062561,0.0231934,0.0210571,0.0299072,0.0588989,0.0167847,-0.0366211,0.0213623,0.0421143
92,1,0.0231934,-0.0100708,0.0402832,0.00640869,0.0289917,0.0241089,0.0305176,0.0396729,0.0753784,0.0259399,-0.032959,0.00518799,0.0247192
92,2,0.0134277,0.00213623,0.015564,0.00915527,0.0219727,0.0222778,0.0311279,0.039978,0.039978,0.0363159,-0.0201416,0.0164795,0.00335693
92,3,0.012207,0.0326538,0.0241089,-0.00305176,-0.0274658,0.0244141,0.0250244,-0.0262451,0.0335693,0.017395,-0.0299072,0.032959,-0.00610352
92,4,0.0146484,0.00854492,0.0186157,-0.0134277,0.00640869,0.0222778,0.0253296,0.0241089,-0.000915527,0.0234985,-0.0271606,-0.00579834,0.0198364
93,0,0.0137329,0.0170898,0.0134277,-0.0109863,0.0405884,0.015564,0.0296021,0.0125122,0.0161743,0.0302124,-0.027771,0.0231934,0.0213623
93,1,0.017395,0.0543213,0.0186157,-0.027771,0.0146484,0.0234985,0.0332642,0.0259399,0.0241089,0.0280762,-0.0396729,0.0244141,0.0344849
93,2,0.0195312,0.0088501,0.0228882,-0.017395,0.0396729,0.0219727,0.0292969,0.0317383,0.0286865,0.0341797,-0.0335693,0.0320435,0.0170898
93,3,-0.00823975,0.0088501,0.0201416,-0.000305176,0.00915527,0.0228882,0.0552368,0.0344849,0.0210571,0.0238037,-0.0219727,0.0213623,-0.0128174
93,4,0.0296021,0.0125122,0.0238037,0.0588989,0.020752,0.0140381,-0.022583,0.0311279,0.0283813,0.0299072,-0.0317383,0.0192261,0.0170898
94,0,0.0158691,0.00762939,-0.00183105,0.00427246,0.00671387,0.0424194,0.0411987,0.0540161,-0.0234985,0.0363159,-0.0305176,0,0.0222778
94,1,0.0683594,0.0411987,0.0292969,0.0152588,0.00366211,0.0299072,0.0170898,0.0253296,0.0311279,0.0241089,-0.0012207,0.0262451,0.027771
94,2,0.0338745,0.0537109,0.0271606,0.0128174,0.00305176,0.0372314,0.0149536,-0.0201416,0.0292969,0.0375366,-0.0183105,0.0192261,0.0152588
94,3,0.017395,0.0363159,0.0286865,0.0222778,0.0259399,0.0268555,0.0265503,0.0201416,0.000305176,0.0296021,-0.0332642,0.0637817,0.00976562
94,4,0.0164795,0.00488281,-0.00854492,0.0408936,0.00701904,-0.00701904,0.0216675,0.0317383,0.0378418,0.0418091,-0.0384521,0.0320435,0.0216675
95,0,0.0292969,-0.00183105,0.0231934,0.0372314,0.00793457,0.0323486,0.0170898,0.0369263,0.0253296,0.0186157,-0.0549316,0.0250244,0.00915527
95,1,0.0500488,-0.0140381,-0.0231934,0.0134277,0.0146484,0.017395,0.0241089,0.0140381,0.0106812,0.0204468,-0.0405884,0.0314331,0.0259399
95,2,0.0247192,-0.0131226,0.0524902,-0.00244141,0.0256348,0.0137329,0.0759888,0.0280762,0.0299072,0.0695801,-0.0265503,0.0326538,0.00488281
95,3,0.0234985,-0.00274658,-0.0189209,0.0384521,0.03479,-0.0305176,0.0259399,0.010376,0.0527954,0.0180054,-0.0241089,0.0149536,0.0305176
95,4,0.0262451,-0.0244141,0.0228882,0.0488281,0.0137329,0.020752,0.0247192,0.0311279,0.0231934,0.0189209,-0.0238037,0.0256348,0.0228882
96,0,0.017395,-0.0534058,0.0253296,0.0198364,-0.0375366,0.0289917,0.020752,0.0268555,0.0430298,0.0253296,-0.0286865,-0.0012207,0.0265503
96,1,0.0265503,-0.0192261,0.0210571,0.015564,0.0192261,0.00640869,0.0204468,0.00183105,0.0308228,0.0308228,-0.0408936,0.022583,0.0308228
96,2,0.03479,0.00274658,0.00915527,-0.0158691,0.0189209,0.0216675,0.0274658,0.0463867,0.020752,0.0405884,-0.0369263,0.0308228,0.010376
96,3,0.0253296,0.0323486,0.00823975,0.00244141,0.0167847,0.0100708,0.0265503,0.022583,0.0296021,0.0302124,-0.0332642,0.0460815,0.0366211
96,4,-0.0302124,0.106506,0.020752,-0.0106812,0.00610352,0.015564,0.0238037,0.0311279,0.0250244,0.027771,-0.0549316,0.0463867,0.0332642
97,0,0.0299072,0.0552368,0.00915527,-0.0125122,0.0198364,0.0323486,0.0158691,0.0354004,0.0323486,0.0314331,-0.0238037,0.0222778,0.045166
97,1,0.032959,-0.00183105,0.0198364,-0.0119019,0.0152588,-0.000610352,0.0332642,-0.00396729,0.0296021,0.0274658,-0.06073,0.0323486,0.0460815
97,2,0.0366211,0.0463867,0.0112915,-0.00518799,0.0244141,0.0125122,0.0140381,0.0253296,0.0234985,0.0268555,-0.032959,0.0271606,0.0119019
97,3,0.0256348,0.0421143,0.0299072,-0.027771,0.00732422,0.0134277,-0.0100708,0.0292969,0.0210571,0.00793457,-0.0253296,0.0210571,0.0616455
97,4,0.0332642,0.0250244,0.0274658,0.00549316,0.0231934,0.00518799,0.0317383,0.039978,0.0201416,0.022583,-0.0457764,0.0332642,0.0268555
98,0,0.0332642,0.0299072,0.0469971,0.0180054,-0.00488281,0.00793457,0.0115967,0.0320435,0.0201416,0.00183105,-0.0271606,0.0354004,0.0482178
98,1,0.0216675,-0.00488281,0.0186157,0.0112915,0.0253296,0.00915527,0.0137329,0.017395,0.0167847,0.0338745,-0.0384521,0.0204468,0.0198364
98,2,0.0534058,0.0335693,0.0268555,0.0161743,0.0250244,0.00793457,-0.00396729,0.0332642,0.0210571,0.0387573,-0.0396729,0.020752,0.0222778
98,3,-0.0363159,0.0491333,0.0210571,0.0405884,0.0112915,0.0262451,0.0228882,0.0259399,0.0469971,0.0262451,-0.0448608,0.0250244,0.0314331
98,4,0.0177002,0.0317383,0.0219727,0.0335693,0.0222778,-0.00396729,0.0213623,0.0115967,0.0393677,0.0286865,-0.0177002,0.0100708,0.0265503
99,0,0.0228882,0.0524902,0.00762939,0.0457764,0.0167847,0.0247192,0.0167847,0.0238037,0.0250244,0.0201416,-0.0305176,0.00732422,0.0164795
99,1,0.00640869,0.032959,0.0177002,0.0543213,0.0109863,0.0241089,-0.0183105,0.0259399,0.0253296,0.0997925,-0.0271606,0.0332642,-0.0604248
99,2,0.045166,0.0390625,0.010376,0.0463867,0.00854492,-0.0186157,0.0180054,0.0164795,0.0634766,0.0296021,-0.0387573,0.0253296,0.0219727
99,3,0.020752,0.0134277,0.0241089,0.0323486,0.039978,0.0201416,-0.00274658,0.0253296,0.0311279,-0.0213623,-0.0369263,0.0341797,0.0384521
99,4,0.0314331,0.0759888,0.0259399,0.0213623,0.0186157,-0.00518799,0.0146484,0.0241089,0.015564,0.0115967,-0.0320435,0.0238037,0.03479
100,0,0.0350952,0.0256348,0.0262451,0.0244141,0.0411987,0.0131226,0.0112915,0.0262451,0.0186157,0.0177002,-0.0430298,0.0283813,0.0418091
100,1,0.0189209,0.0234985,0.0216675,0.00396729,0.00701904,0.015564,0.0201416,0.0299072,0.0286865,0.0253296,-0.0183105,0.0146484,0.0170898
100,2,0.0744629,0.0012207,0.0216675,0.00701904,0.0152588,0.0158691,0.0167847,0.0146484,0.00732422,0.0299072,-0.0372314,0.00701904,0.0323486
100,3,0.0445557,0.0314331,0.0161743,-0.0106812,-0.0152588,0.0189209,0.012207,0.0149536,0.0247192,0.0167847,-0.0280762,0.0326538,0.027771
100,4,0.0292969,0.0308228,0.0534058,-0.00823975,0.0140381,0.0143433,0.0152588,0.0109863,0.0311279,0.0219727,-0.0369263,0.015564,0.0177002
101,0,0.0424194,0.0393677,0.0241089,-0.00366211,-0.0241089,0.0125122,-0.0137329,0.022583,0.0152588,-0.0524902,-0.0421143,0.0213623,-0.0262451
101,1,0.0439453,0.0354004,0.00640869,-0.00335693,-0.045166,0.0247192,0.00183105,0.00946045,0.00946045,0.00823975,-0.038147,0.0274658,0.0250244
101,2,-0.0262451,0.0408936,0.0320435,-0.0695801,0.00854492,0.0280762,0.0247192,0.00976562,-0.00213623,0.0332642,-0.0305176,0.0247192,0.0238037
101,3,0.00335693,0.0158691,0.0421143,-0.00366211,0.0366211,0.0125122,0.0192261,0.00366211,0.03479,0.010376,-0.0488281,0.0283813,0.0302124
101,4,0.0299072,0.0152588,0.0112915,-0.00915527,0.0140381,0.032959,0.0405884,0.0332642,0.0131226,0.0204468,-0.0338745,0.0482178,0.03479
102,0,0.0317383,0.0317383,0.0149536,0.0189209,0.0143433,-0.0119019,0.0256348,0.0250244,-0.00976562,0.0320435,-0.0286865,0.0405884,0.0344849
102,1,0.0335693,0.0231934,-0.0146484,0.0170898,0.0195312,0.0146484,0.0198364,0.032959,0.0201416,0.0335693,-0.0387573,0.0302124,0.000915527
102,2,0.0479126,0.0189209,0.0265503,0.020752,0.010376,0.0186157,0.0210571,0.015564,0.0210571,0.0222778,-0.078125,0.0350952,0.0109863
102,3,0.0231934,0.000610352,-0.00579834,0.0415039,0.0164795,0.0140381,0.012207,0.0280762,0.0524902,0.0210571,-0.0256348,0.0653076,0.0274658
102,4,0.022583,0.0320435,0.0170898,0.0183105,0.0128174,0.0241089,0.0500488,0.000610352,0.0161743,0.00610352,-0.0271606,0.0338745,0.0317383
103,0,0.0140381,-0.00335693,0.0296021,0.0378418,0.0244141,0.0305176,0.0201416,-0.0393677,0.0189209,0.0405884,-0.0265503,0.0396729,0.00671387
103,1,0.0308228,-0.00305176,0.0247192,0.0357056,0.0119019,0.0228882,0.00244141,0.0335693,0.0253296,0.0198364,-0.0360107,0.00854492,0.0222778
103,2,0.0265503,-0.0152588,0.06073,0.0476074,0.0299072,-0.0311279,0.00701904,0.00579834,0.0500488,0.0198364,-0.0320435,0.0253296,0.0177002
103,3,0.0323486,-0.0228882,0.0241089,0.0335693,0.0222778,0.0271606,0.0183105,0.00732422,0.0119019,0.032959,-0.0280762,0.0280762,0.0311279
103,4,0.0222778,0.00915527,0.062561,0.0375366,0.00518799,0.0598145,0.0320435,0.0314331,0.0164795,0.0213623,-0.0280762,0.0305176,0.0418091
104,0,0.0396729,0.012207,0.0335693,0.0134277,-0.00274658,0.020752,-0.00579834,0.0314331,0.0195312,0.0289917,-0.0265503,0.0332642,0.0305176
104,1,0.0518799,0.0271606,0.0332642,0.0357056,0.0201416,0.0088501,0.0140381,0.0256348,0.0128174,0.0357056,-0.0396729,0.0296021,0.0314331
104,2,-0.00518799,0.0323486,0.0323486,0.0650024,0.0326538,0.0241089,0.00640869,0.0137329,0.0338745,0.0534058,-0.0558472,0.0430298,0.0402832
104,3,0.0491333,0.027771,0.0375366,-0.0262451,0.0210571,0.00762939,0.0125122,0.00854492,0.0286865,0.0515747,-0.0344849,0.0390625,0.0271606
104,4,-0.00823975,0.00549316,0.0378418,0.000915527,0.0183105,0.0335693,0.0167847,0.0274658,0.0369263,0.0338745,-0.0582886,-0.00793457,0.0448608
105,0,0.0292969,0.0186157,0.0332642,0.00305176,0.0268555,0.0149536,0.0164795,0.0292969,0.0204468,0.0357056,-0.0286865,0.027771,0.0488281
105,1,0.0299072,-0.015564,0.0775146,-0.00244141,0.0234985,0.0283813,0.0143433,0.0189209,0.0427246,0.0363159,-0.0421143,0.0177002,0.00732422
105,2,0.0326538,0.0134277,0.0256348,0.0012207,0.0198364,0.00396729,0.0177002,-0.00274658,0.027771,0.0375366,-0.0183105,0.0512695,0.045166
105,3,0.0360107,0.0234985,0.0363159,0,0.0131226,0.0234985,0.0183105,0.0180054,0.0253296,0.0476074,-0.00946045,0.0299072,0.0643921
105,4,0.0299072,0.0262451,0.017395,0.0256348,0.0274658,0.0332642,0.0167847,0.0253296,0.0485229,0.055542,-0.0137329,0.0454712,0.0454712
106,0,0.0405884,0.0344849,0.0405884,0.0143433,0.0335693,0.00335693,0.0183105,0.0234985,0.0393677,0.0509644,-0.0631714,0.0616455,0.0195312
106,1,0.010376,-0.0375366,0.0366211,0.0396729,0.0247192,0.0109863,0.0485229,0.0170898,0.0265503,0.0299072,-0.0274658,0.03479,0.0268555
106,2,0.0427246,0.00976562,0.0180054,0.0195312,0.0161743,0.0250244,0.0256348,0.022583,0.0592041,0.0430298,-0.0314331,0.0900269,0.0344849
106,3,0.0247192,0.0650024,0.0192261,0.0430298,0.0296021,0.0134277,0.0408936,0.00396729,0.00427246,0.0485229,-0.0183105,0.0253296,0.0296021
106,4,0.0466919,0.0964355,0.0360107,0.0473022,0.0402832,0.0186157,0.0198364,0.0183105,0.0222778,0.0613403,-0.0341797,0.0396729,0.0210571
107,0,0.0201416,0.00427246,0.0387573,0.0488281,0.0238037,0.0189209,0.0262451,0.0234985,0.0106812,0.0369263,-0.0289917,0.0375366,0.0653076
107,1,-0.0439453,0.0106812,0.0372314,0.0747681,0.0244141,0.00793457,0.00732422,0.0241089,0.0222778,0.0393677,-0.0390625,0.0186157,0.0286865
107,2,0.0378418,0.0411987,0.0192261,0.0576782,0.0286865,0.0119019,0.00244141,0.0183105,0.0234985,0.0177002,-0.0210571,0.0378418,0.0418091
107,3,0.0219727,0.0512695,0.0402832,0.0408936,0.0204468,0.0161743,0.0286865,0.00732422,0.0228882,0.0320435,-0.0186157,0.0198364,0.0234985
107,4,0.0378418,0.0509644,0.0259399,0.0326538,0.0152588,0.0164795,0.0231934,0.0183105,0.00823975,0.0253296,-0.0588989,0.0161743,0.0415039
108,0,0.0289917,0.0485229,0.0125122,0.0292969,0.0268555,0.0170898,0.00976562,0.0210571,0.0640869,0.0405884,-0.0271606,0.0540161,0.0180054
108,1,0.0408936,0.0427246,0.0265503,0.0253296,0.0222778,0.0106812,0.0881958,0.0289917,0.0253296,0.0402832,-0.0363159,0.0164795,-0.0198364
108,2,0.0558472,0.100708,0.0442505,0.0271606,0.0161743,0.0283813,0.0192261,0.00579834,0.0088501,0.027771,-0.0280762,0.0494385,0.0421143
108,3,0.0259399,0.0738525,0.057373,0.0125122,0.0375366,0.00946045,0.0338745,0.0167847,-0.00244141,0.0369263,-0.0186157,0.0366211,0.0177002
108,4,0.0253296,0.0582886,0.0357056,0.00793457,0.0436401,0.0158691,0.00366211,-0.0106812,0.0314331,0.0497437,-0.0134277,0.0231934,0.0448608
109,0,0.0198364,0.0250244,0.0189209,-0.00793457,0.00488281,0.0323486,0.0119019,0.0216675,0.0149536,0.022583,-0.0296021,0.0189209,-0.0100708
109,1,0.0338745,0.0265503,0.0189209,0.0170898,0.0170898,0.0308228,0.00518799,0.0109863,0.010376,0.0250244,-0.0180054,0.0296021,0.0460815
109,2,0.032959,0.0219727,0.0408936,0.00183105,0.0183105,0.00701904,0.0210571,0.0201416,0.0241089,0.0262451,-0.00610352,-0.0216675,0.0460815
109,3,0.00854492,0.0338745,0.0198364,0.0180054,0.0299072,0.0308228,-0.00274658,0.00823975,0.0125122,0.0204468,-0.0253296,0.022583,0.0595093
109,4,0.0439453,0.0479126,0.0341797,0.0143433,0.0161743,0.0772095,0.0366211,-0.0192261,0.017395,0.0219727,-0.0183105,0.0463867,0.0427246
110,0,0.0161743,0.0393677,0.0265503,0.0296021,0.0354004,0.0152588,0.0308228,0.015564,0.0128174,0.0152588,-0.027771,0.020752,0.0305176
110,1,0.0344849,0.0415039,0.0241089,0.0299072,0.015564,0.00396729,0.0192261,0.00549316,0.0131226,0.038147,-0.0204468,0.032959,0.0234985
110,2,0.0280762,0.0335693,0.0271606,0.0372314,-0.0262451,0.00946045,0.0296021,0.0100708,0.0128174,0.0265503,-0.0186157,0.0354004,0.0372314
110,3,0.0375366,0.0204468,0.0289917,0.0308228,-0.0119019,0.00427246,0.0134277,0.0100708,0.015564,0.00274658,-0.0360107,0.0598145,0.0204468
110,4,0.0204468,0.0088501,0.0408936,0.0335693,0.0262451,0.0271606,0.0167847,0.0152588,0.022583,0.00152588,-0.0311279,0.0189209,0.03479
111,0,0.0250244,-0.000305176,0.012207,0.0518799,0.0189209,0.0143433,0.0283813,0.00518799,0.0228882,0.00854492,-0.0701904,0.0146484,0.0244141
111,1,0.0289917,-0.00854492,0.0442505,0.0762939,0.010376,-0.020752,0.0137329,0.0241089,0.00274658,0.0106812,-0.0286865,0.032959,0.0350952
111,2,0.0296021,-0.015564,0.0360107,0.0860596,0.012207,0.0167847,0.0698853,0.032959,0.00762939,-0.0418091,-0.0305176,0.0384521,0.0299072
111,3,-0.000915527,-0.00579834,0.107422,0.0485229,0.0106812,0.0259399,0.0271606,0.0146484,0.0259399,0.0167847,-0.0201416,-0.00427246,0.0384521
111,4,0.0238037,0.0106812,0.0259399,0.0405884,0.00946045,0.0195312,0.0268555,0.0125122,0.00579834,0.0195312,-0.0143433,0.0152588,0.0271606
112,0,0.0408936,-0.00488281,0.0296021,0.0357056,0.0344849,-0.00518799,0.0134277,0.0262451,0,0.0128174,-0.0213623,0.0384521,0.0424194
112,1,0.0289917,-0.00732422,0.0167847,0.0460815,0.0253296,0.0131226,0.0195312,0.0100708,-0.00335693,0.00457764,-0.0326538,0.0274658,0.03479
112,2,0.0320435,0.0253296,0.045166,0.0152588,0.0198364,0.032959,0.0146484,0.0253296,0.0140381,0.0149536,-0.0222778,0.0247192,0.0317383
112,3,0.0335693,0.038147,0.0320435,0.00854492,0.020752,0.0161743,0.0177002,0.0158691,0.00762939,0,-0.0247192,0.0448608,0.0564575
112,4,0.00305176,0.0320435,-0.00152588,0.00793457,0.022583,0.0418091,0.022583,0.0195312,0.0250244,0.0164795,-0.0311279,0.0146484,0.0238037
113,0,0.0372314,0.0561523,0.0115967,0.0201416,0.0265503,0.00640869,0.0238037,0.012207,0.0158691,0.0140381,-0.0234985,0.0219727,0.0622559
113,1,0.0296021,0.0744629,0.0332642,0.0119019,0.0219727,0.0979614,0.0283813,0.0311279,0.0561523,0.0170898,-0.0186157,-0.00823975,0.0372314
113,2,0.0286865,0.0613403,0.0314331,0.00610352,0.0213623,0.0302124,0.00335693,0.0210571,0.0204468,-0.00274658,-0.0283813,-0.00213623,0.0479126
113,3,0.0247192,0.0292969,0.0292969,0.00549316,0.104675,0.027771,0.022583,0.0668335,0.00762939,0.00244141,-0.0250244,0.0265503,0.0302124
113,4,0.0292969,0.010376,0.0320435,0.0201416,0.0012207,0.0149536,0.0106812,0.0262451,0.0106812,0.00762939,-0.0195312,0.0109863,0.0234985
114,0,0.0274658,-0.0341797,0.0473022,0.0360107,0.043335,0.0268555,0.0161743,-0.0012207,0.0222778,-0.0137329,-0.0228882,0.0195312,0.0372314
114,1,0.00854492,0.0167847,0.0213623,0.0289917,0.0332642,0.0189209,0.0189209,0.0198364,0.0186157,0.00854492,-0.0112915,-0.000305176,0.0109863
114,2,0.00427246,0.0259399,0.0363159,-0.0244141,0.0369263,0.0213623,0.0158691,0.010376,0.0170898,0.00549316,-0.0189209,0.0149536,0.0271606
114,3,0.0204468,0.0274658,0.0253296,0.0442505,0.0396729,0.0149536,0.0213623,0.0201416,0.00640869,0.0143433,-0.0326538,0.0201416,0.0180054
114,4,0.0216675,0.0369263,0.0286865,0.0421143,0.0286865,0.0274658,0.0244141,0.0271606,0.0231934,0.0100708,-0.0579834,0.0131226,0.0238037
115,0,0.0192261,0.0186157,0.0326538,0.0460815,0.0390625,0.0186157,0.0222778,0.0219727,0.0216675,0.0164795,-0.00610352,0.000610352,0.0274658
115,1,0.022583,0.0262451,0.027771,0.057373,0.0161743,0.022583,0.0100708,0.00671387,0.0250244,0.0665283,-0.00366211,0.0180054,0.0546265
115,2,0.0152588,0.0213623,0.0247192,0.0378418,0.0445557,0.0323486,0.0250244,0.0170898,-0.0311279,0.0134277,-0.0231934,0.0210571,0.0515747
115,3,0.0143433,0.0350952,0.0665283,0.0482178,0.0296021,0.0280762,0.0311279,0.0216675,0.0109863,0.0134277,-0.0198364,0.0283813,0.0210571
115,4,0.027771,0.0137329,0.00732422,0.0378418,0.0497437,0.0247192,0.0418091,0.00823975,0.00518799,-0.00274658,-0.0204468,-0.000305176,0.0134277
116,0,0.00427246,0.0689697,0.0405884,0.0375366,0.0439453,0.0198364,0.0366211,0.012207,0.00610352,-0.00244141,-0.0146484,0.0344849,-0.0143433
116,1,0.0170898,0.0524902,0.00946045,-0.00427246,0.0387573,0.03479,0.10437,0.00579834,0.0186157,-0.00915527,-0.00457764,0.0299072,0.0296021
116,2,0.0256348,0.0213623,0.0280762,0.017395,0.043335,0.0302124,0.0326538,-0.00976562,0.0164795,-0.00152588,0.0177002,0.0201416,0.0234985
116,3,0.0280762,0.00854492,0.0491333,0.017395,0.0439453,0.0262451,0.0222778,0.0231934,0.0143433,0.00946045,-0.0140381,0.0143433,0.03479
116,4,-0.0265503,0.0216675,0.0418091,0.0643921,0.0369263,0.0323486,0.0836182,0.0115967,0.00915527,-0.0485229,-0.0213623,0.0253296,0.0836182
117,0,0.0204468,0.0292969,0.0247192,0.00549316,0.0234985,0.0283813,0.0231934,0.0241089,0.012207,0.0106812,-0.0106812,0.0592041,0.0131226
117,1,0.027771,0.0360107,0.0436401,0.0112915,0.0274658,0.022583,0.0170898,0.010376,0.00701904,0.0112915,-0.0180054,0.0283813,0.0302124
117,2,0.0247192,-0.0549316,0.0201416,-0.0088501,0.0308228,0.0292969,0.022583,0.0186157,0.00396729,-0.0106812,-0.00183105,0.0149536,0.0222778
117,3,0.0192261,-0.0216675,0.0482178,0.012207,0.0231934,0.0305176,0.0271606,0.0369263,0.0158691,0.0219727,-0.0137329,0.0250244,0.0302124
117,4,-0.0396729,-0.0140381,0.027771,0.00427246,0.0210571,0.0289917,0.0231934,0.0283813,0.00427246,0.020752,-0.0192261,0.0146484,0.0430298
118,0,0.0326538,0.0125122,0.032959,0.00640869,0.0222778,0.0320435,-0.0408936,0.0112915,0.00274658,0.00701904,-0.012207,0.0115967,0.0204468
118,1,0.0201416,0.0286865,0.0305176,0.0161743,0.010376,0.0305176,0.0131226,0.0143433,0.0158691,0.0317383,-0.0195312,0.0231934,0.0186157
118,2,0.00518799,0.0259399,0.0457764,0.0366211,0.0357056,0.0238037,0.0320435,0.0189209,0.0128174,-0.0234985,-0.0140381,0.000915527,0.0421143
118,3,0.0247192,0.0161743,0.0241089,0.0289917,0.0292969,0.0292969,0.0170898,0.0134277,0.00946045,-0.00976562,-0.0201416,0.0128174,0.0979614
118,4,0.0610352,0.0088501,0.0189209,0.0427246,0.0424194,0.017395,0.0219727,0.0161743,0.0119019,0.000305176,-0.0262451,0.0296021,0.0494385
119,0,0.0357056,0.012207,0.0378418,0.0634766,0.0363159,0.0259399,0.0762939,0.0253296,0.0369263,0.0192261,-0.0186157,0.0326538,0.032959
119,1,0.0323486,0.00305176,0.0344849,0.0219727,0.0262451,0.0265503,0.0143433,0.0115967,0.0219727,0.0271606,-0.0231934,0.022583,0.0311279
119,2,0.0292969,0.00549316,0.057373,0.0546265,0.0195312,-0.0350952,0.0402832,0.0125122,0.0170898,0.0222778,-0.0262451,0.0186157,0.032959
119,3,0.0219727,0.0268555,0.0186157,0.0439453,0.0405884,0.032959,0.0222778,0.0234985,0.00549316,0.00518799,-0.0274658,0.039978,0.0250244
119,4,0.032959,0.015564,0.03479,0.0137329,0.0253296,0.0683594,0.0436401,0.0601196,0.0369263,-0.00244141,-0.0186157,0.0201416,0.0247192
120,0,0.0198364,0.00579834,0.0244141,0.0286865,0.0299072,0.0308228,0.0204468,0.0210571,0.0186157,0.0366211,-0.020752,0.0119019,0.0262451
120,1,0.0158691,0.00823975,0.0842285,0.0317383,0.0219727,-0.0311279,0.0158691,0.017395,-0.0109863,-0.00427246,-0.0180054,0.0524902,0.0311279
120,2,0.0204468,0.0119019,0.0311279,0.0140381,0.0405884,0.0305176,0.0152588,0.0106812,0.0308228,-0.00579834,-0.00152588,0.0146484,-0.00854492
120,3,-0.0234985,0.0308228,0.0286865,0.0161743,0.0418091,0.0247192,0.0140381,0.0253296,0.0396729,0.00305176,-0.0250244,0.0164795,0.00183105
120,4,0.0128174,0.0384521,0.0152588,-0.00396729,0.0515747,0.0424194,0.0384521,0.0128174,0.0241089,0.00854492,-0.0186157,0.0274658,0.0189209
121,0,0.00915527,0.0552368,-0.03479,-0.00366211,0.0213623,0.0717163,0.0387573,0.0186157,0.0402832,0.0115967,-0.0210571,0.038147,0.00396729
121,1,0.0149536,0.0350952,0.0305176,-0.00518799,0.0524902,0.020752,0.0326538,0.032959,0.0192261,0.0234985,-0.0228882,0.0143433,0.0354004
121,2,0.0192261,0.0753784,0.00854492,-0.00793457,0.0231934,0.0305176,0.022583,0.0204468,0.0476074,0.0143433,-0.0253296,0.0445557,0.0204468
121,3,0.0418091,0.0567627,0.0115967,0.00579834,0.0238037,0.0231934,0.0378418,0.0311279,0.0180054,0.0204468,-0.0100708,0.0128174,0.00793457
121,4,0.0350952,0.0500488,0.0234985,0.0149536,0.0219727,0.0341797,0.00244141,0.0192261,0.00915527,0.0375366,-0.0308228,0.017395,0.0317383
122,0,0.0167847,0.0637817,0.0189209,0.0167847,0.0305176,0.03479,0.110779,0.0219727,0.0201416,0.00610352,-0.0137329,-0.00366211,0.00671387
122,1,0.0161743,0.0759888,0.045166,0.0231934,0.0445557,0.0341797,0.0296021,0.0134277,0.017395,0.000305176,-0.00427246,0.0088501,0.0265503
122,2,0.0473022,0.00762939,0.010376,0.012207,0.0302124,0.0320435,0.0418091,0.0222778,0.0283813,0.0161743,-0.0219727,0.0198364,-0.00457764
122,3,-0.00823975,-0.0186157,0.0305176,0.0350952,0.0473022,0.0177002,0.027771,0.0360107,0.012207,0.0192261,-0.00976562,0.0250244,0.0292969
122,4,0.0213623,-0.0177002,-0.038147,0.0280762,0.0247192,0.0509644,0.0247192,0.0186157,0.0369263,0.017395,-0.0201416,0.0201416,0.0271606
123,0,0.0299072,-0.000610352,0.00518799,0.0396729,0.00518799,0.0198364,0.015564,0.0372314,0.0241089,0.0308228,-0.0183105,0.0317383,0.0134277
123,1,0.0241089,0.00640869,0.0164795,0.0296021,0.0561523,0.0219727,0.0109863,0.0320435,0.00762939,0.0387573,-0.0119019,0.0134277,-0.03479
123,2,0.0228882,0.0100708,0.0454712,0.0305176,0.0552368,0.010376,0.055542,0.0180054,0.00946045,0.0268555,-0.00946045,0.0234985,0.0134277
123,3,0.0180054,-0.0164795,0.0106812,0.0387573,0.0500488,0.0134277,0.0335693,0.0238037,0.0421143,0.0149536,-0.0167847,0.0183105,0.0198364
123,4,0.0137329,0.00732422,0.0244141,0.0332642,0.0717163,0.0332642,0.0186157,0.0274658,0.0393677,0.0363159,-0.0146484,0.0195312,0.0241089
124,0,0.0204468,0.0762939,0.0119019,0.032959,0.0289917,0.0140381,0.0180054,0.0308228,0.0125122,0.0210571,-0.0137329,0.000610352,0.0189209
124,1,0.0375366,0.0674438,0.0512695,0.0454712,0.0314331,0.045166,0.0424194,0.0170898,0.017395,0.00427246,-0.0164795,0.0119019,0.0253296
124,2,0.00213623,0.0576782,0.010376,0.0109863,0.022583,0.0201416,0.0265503,0.0341797,0.0405884,0.0125122,-0.0366211,0.00549316,0.0140381
124,3,0.0296021,0.0234985,-0.0143433,-0.0125122,0.0167847,0.0253296,0.0415039,0.0430298,0.017395,0.0241089,-0.00518799,0.00701904,0.0134277
124,4,0.0164795,-0.00213623,0.00701904,0.0622559,0.0390625,0.0198364,0.0143433,0.0421143,0.020752,0.0167847,-0.0115967,0.0167847,-0.0109863
125,0,0.0772095,0.000610352,0.0128174,-0.0613403,0.0286865,0.0247192,0.0750732,0.0244141,0.0259399,-0.0341797,-0.010376,0.0131226,0.00274658
125,1,0.012207,0.000915527,0.017395,0.0280762,0.0341797,0.015564,0.0338745,0.0354004,0.0170898,0.0289917,-0.0164795,0.00640869,0.0296021
125,2,0.0119019,0.0378418,0.0299072,-0.00640869,0.0372314,0.0363159,-0.0521851,0.0244141,0.0332642,0.0360107,-0.0726318,0.0106812,-0.000915527
125,3,0.0216675,-0.0143433,0.015564,-0.0131226,0.0314331,0.0415039,-0.104065,0.03479,0.00396729,0.0134277,-0.017395,0.0378418,0.0341797
125,4,0.010376,0.0299072,0.0201416,0.083313,0.0189209,0.0228882,0.101318,0.0308228,0.00976562,0.00762939,-0.0201416,0.0119019,0.0241089
126,0,0.0140381,0.022583,-0.0170898,-0.0396729,0.0241089,0.0222778,-0.00976562,0.0164795,-0.0588989,0.0222778,-0.0250244,0.0256348,0.0296021
126,1,0.00488281,0.0167847,0.017395,0.0219727,0.0421143,0.0283813,0.0683594,0.0262451,0.0244141,0.0195312,-0.015564,0.000305176,-0.0152588
126,2,0.0146484,0.0726318,-0.00732422,0.0405884,0.0253296,0.0286865,0.0442505,0.0274658,0.0244141,0.0143433,-0.0137329,0.0192261,-0.0350952
126,3,0.0289917,0.0482178,0.0170898,0.043335,0.032959,-0.00366211,0.0469971,0.0128174,0.0299072,-0.0289917,-0.00701904,0.0149536,0.0753784
126,4,0.0570679,0.0177002,0.0158691,0.0604248,0.0271606,0.0332642,0.0366211,0.032959,0.0341797,-0.00823975,-0.00305176,0.00640869,-0.00335693
127,0,0.0271606,-0.0137329,0.0262451,0.0241089,0.0283813,0.045166,0.0253296,0.0271606,0.0268555,0.0115967,-0.015564,-0.0283813,0.0274658
127,1,0.0201416,-0.0100708,0.0189209,0.067749,0.0180054,0.0466919,0.0753784,0.0222778,0.0357056,0.00579834,-0.012207,0.00213623,0.0210571
127,2,0.015564,-0.00579834,0.0634766,0.0509644,0.015564,0.0811768,0.0357056,0.0164795,0.0201416,0.0219727,0.00152588,0.0088501,0.0234985
127,3,0.0177002,-0.00274658,0.0106812,0.0479126,0.038147,0.0354004,0.0744629,0.107117,0.038147,-0.000915527,-0.0112915,0.0332642,0.0268555
127,4,0.0219727,0.0195312,0.0164795,0.0445557,0.0546265,0.0585938,0.0436401,0.0180054,0.0238037,0.0234985,-0.0189209,0.0134277,0.0158691
128,0,0.000610352,0.0448608,0.0143433,0.0354004,0.0378418,0.0186157,0.0506592,0.0271606,0.00976562,0.0106812,-0.0317383,0.0231934,0.010376
128,1,0.0131226,0.00854492,0.00976562,0.0424194,0.0204468,0.0436401,0.062561,0.0784302,0.0131226,0.0213623,-0.0213623,0.0167847,-0.0112915
128,2,0.00915527,0.010376,0.0759888,0.0195312,0.0180054,0.0598145,0.0469971,0.03479,-0.0628662,0.020752,-0.0195312,0.0299072,0.0119019
128,3,0.00854492,0.0302124,0.0112915,0.0143433,0.0265503,0.0439453,0.0326538,0.0186157,0.0012207,0.0286865,-0.00457764,0.0140381,0.0393677
128,4,0.0167847,0.0238037,0.00854492,0.00762939,0.0262451,0.0946045,0.0582886,0.0372314,0.00488281,0.0262451,-0.0241089,0.0128174,0.0296021
129,0,0.0231934,0.0170898,0.0131226,0.00335693,0.020752,0.0259399,0.0140381,0.038147,0.0231934,0.0201416,-0.0195312,0.00457764,0.027771
129,1,0.0387573,0.0253296,0.00671387,-0.0152588,0.022583,0.0494385,0.0369263,0.0265503,0.0216675,-0.000915527,-0.0204468,0.012207,-0.0088501
129,2,0.0259399,0.062561,0.00549316,-0.0100708,0.0372314,0.0491333,0.0415039,0.00183105,0.0292969,0.0164795,-0.022583,0.0259399,0.020752
129,3,-0.0167847,0.0106812,0.0180054,0.0405884,0.0238037,0.0524902,0.0302124,0.0335693,0.0216675,0.0201416,-0.0161743,0.0234985,0.012207
129,4,-0.0131226,0.0253296,0.0189209,0.00946045,0.0390625,0.0308228,0.045166,0.0204468,0.0140381,0.0244141,-0.0323486,-0.0106812,0.0280762
130,0,0.0216675,0.0335693,0.0195312,-0.0012207,0.0219727,0.00915527,0.0521851,0.038147,0.0274658,0.0186157,-0.0140381,0.00915527,0.0152588
130,1,0.0161743,0.0262451,0.0167847,0.00610352,0.0405884,0.0366211,0.0259399,0.0454712,0.0488281,0.0164795,-0.0131226,0.0152588,0.0125122
130,2,0.0146484,0.0158691,-0.0253296,0.0369263,0.0308228,0.00183105,0.0280762,0.0350952,0.038147,0.0314331,-0.0439453,0.0167847,0.0131226
130,3,0.0177002,0.00457764,0.0628662,0.0323486,0.0201416,-0.00457764,0.0219727,0.0244141,0.0170898,0.0186157,-0.0314331,0.0259399,0.0177002
130,4,0.0238037,0.0128174,-0.0405884,0.0354004,0.0198364,-0.0131226,0.0323486,0.00213623,0.0247192,0.0341797,-0.00457764,0.0115967,0.0311279
131,0,0.0186157,0.00183105,0.0515747,0.0360107,0.0210571,0.0723267,0.0210571,0.0494385,0.0341797,0.0280762,-0.0280762,0.0524902,0.0280762
131,1,0.0253296,-0.0131226,0.0183105,0.0469971,-0.010376,0.0302124,0.0271606,0.0128174,0.0427246,0.017395,-0.0253296,0.0198364,0.0177002
131,2,-0.00976562,-0.0128174,0.0143433,0.0335693,0.0134277,0.0268555,-0.0112915,0.0125122,0.0360107,0.032959,-0.0228882,0.020752,0.020752
131,3,0.0234985,-0.0109863,0.0112915,0.0357056,0.015564,0.0259399,0.0268555,0.0283813,0.0244141,0.0415039,0.00732422,0.0222778,-0.00488281
131,4,0.0201416,-0.00152588,0.0134277,0.0418091,0.0137329,0.0320435,0.0671387,0.0344849,0.0286865,-0.0186157,-0.0363159,-0.00946045,0.00640869
132,0,0.0112915,0.00762939,0.0210571,0.0466919,0.00610352,0.0332642,0.0350952,0.0274658,0.0274658,0.0332642,-0.0131226,0.0250244,0.0299072
132,1,0.0234985,0.0350952,0.0415039,0.0286865,0.0204468,0.0286865,0.0384521,0.0274658,0.0140381,0.0167847,-0.0228882,0.0332642,-0.000915527
132,2,0.0204468,0.00366211,0.00854492,0.0186157,0.0289917,0.017395,0.0390625,0.0238037,0.0283813,0.015564,-0.0311279,0.032959,0.0234985
132,3,0.0152588,-0.0509644,0.0137329,-0.00701904,0.00152588,0.0289917,0.0247192,0.0344849,0.0479126,0.0177002,-0.0360107,0.0238037,0.0283813
132,4,0.071106,0.0241089,0.00488281,-0.0271606,-0.0134277,0.0112915,-0.0143433,0.0259399,0.0411987,0.0201416,-0.0238037,0.0152588,0.0326538
133,0,0.0186157,0.0204468,-0.0137329,-0.00640869,0.0408936,0.00946045,0.0366211,0.0341797,0.0497437,0.0158691,-0.0152588,0.0430298,0.00244141
133,1,0.0485229,-0.00518799,-0.0189209,0.0119019,0.022583,0.0338745,0.0241089,0.0314331,0.0256348,0.038147,-0.0228882,0.0219727,0.020752
133,2,0.0280762,0.00183105,0.0247192,0.00823975,0.0274658,0.062561,0.0222778,0.0247192,0.027771,0.027771,-0.0305176,0.0262451,0.0195312
133,3,-0.0195312,0.0360107,0.0161743,0.0509644,0.0195312,0.032959,-0.00671387,0.0366211,0.0448608,0.0424194,-0.0546265,0.0222778,0.0247192
133,4,0.0115967,0.0289917,0.0106812,0.00976562,0.00183105,0.0308228,0.0100708,0.0408936,0.0415039,0.0469971,-0.0497437,0.0213623,0.012207
134,0,0.0198364,0.00610352,0.0177002,-0.00488281,-0.0421143,0.00305176,0.0436401,0.0457764,0.0396729,0.0372314,0.017395,0.032959,0.00366211
134,1,0.0204468,0.00579834,0.0204468,0.0112915,0.0115967,0.0546265,0.0228882,0.00274658,0.065918,0.0149536,-0.0161743,-0.0320435,0.0119019
134,2,0.0204468,0.00762939,0.00274658,0.017395,0.0231934,0.0302124,0.0222778,0.0408936,0.0442505,0.0338745,-0.0259399,0.0131226,0.0186157
134,3,0.0247192,0.0134277,0.00488281,0.0283813,0.0216675,0.0244141,0.0271606,0.0415039,0.0415039,0.0152588,-0.0210571,-0.000915527,0.0189209
134,4,0.0161743,0.0231934,0.00610352,0.0424194,0.0088501,-0.00366211,0.0280762,0.050354,0.0765991,0.0213623,-0.0149536,0.0259399,0.0177002
135,0,0.0292969,0.0286865,0.0357056,0.0393677,0.0302124,0.00366211,0.0238037,0.0424194,0.055542,0.0473022,-0.0341797,0.0247192,0.0109863
135,1,0.0292969,0.0326538,0.00915527,0.0286865,-0.0143433,0.0137329,0.0341797,0.00610352,0.0860596,0.0448608,-0.0344849,0.0100708,0.00183105
135,2,0.0305176,0.0213623,0.0125122,0.0427246,0.0167847,0.0308228,0.0286865,0.0439453,0.0418091,0.0378418,-0.0354004,0.0119019,0.0253296
135,3,0.0268555,0.00579834,0.0195312,0.0216675,0.0100708,0.0344849,0.0476074,0.0271606,0.0286865,0.0350952,-0.0588989,0.0219727,-0.00854492
135,4,0.00213623,-0.0152588,0.0198364,0.0372314,-0.0390625,0.0311279,0.0396729,-0.0390625,0.0393677,0.0302124,-0.0271606,0.00549316,0.0158691
136,0,0.0421143,-0.022583,0.00854492,0.0372314,0.0119019,0.0250244,0.0320435,0.0158691,0.0241089,0.0341797,-0.00427246,0.0213623,0.00305176
136,1,0.0146484,-0.0286865,0.0216675,0.032959,-0.0140381,0.0180054,-0.0119019,0.0289917,0.0518799,0.0152588,-0.012207,0.00579834,-0.0558472
136,2,0.0213623,-0.00762939,0.0183105,0.0650024,0.00274658,0.00152588,0.0256348,0.0231934,0.0375366,0.0357056,-0.0405884,-0.012207,0.0210571
136,3,0.0146484,-0.0241089,0.0012207,0.0494385,0.0292969,0.0332642,-0.00335693,0.00946045,0.0500488,0.0375366,-0.022583,0.0146484,0.0271606
136,4,0.0454712,-0.00183105,0.0216675,-0.000610352,0.0289917,0.0299072,0.0183105,0.0357056,0.0598145,0.0335693,-0.0115967,0.0128174,0.00823975
137,0,0.0332642,-0.0137329,0.0183105,-0.0161743,0.0088501,0.027771,0.0250244,0.0314331,0.00610352,0.039978,-0.0259399,0.0299072,0.0213623
137,1,0.0189209,-0.0201416,0.0326538,-0.010376,-0.0268555,0.0167847,0.0167847,0.0201416,0.0497437,0.027771,-0.0274658,0.00762939,0.0332642
137,2,0.0186157,0.0576782,-0.00793457,-0.0231934,0.00976562,-0.0119019,0.0259399,0.0250244,0.0720215,0.0396729,-0.0372314,0.0256348,0.0210571
137,3,0.0137329,0.0396729,0.00640869,-0.017395,0.0228882,0.0302124,0.0210571,-0.00274658,0.0140381,0.0350952,-0.0378418,0.0296021,0.0241089
137,4,0.0402832,0.038147,0.0506592,0,0.0268555,0.0192261,-0.00274658,0.0210571,0.010376,0.0253296,-0.0421143,0.0244141,0.0213623
138,0,0.0189209,0.0830078,0.0195312,-0.000610352,0.0219727,-0.00213623,0.0241089,0.00946045,0.0131226,0.0424194,-0.0238037,0.0317383,0.0799561
138,1,0.0888062,0.0964355,0.0134277,-0.0183105,0.017395,0.0234985,0.0244141,0.0595093,0.00335693,0.0274658,-0.0460815,0.0460815,0.0164795
138,2,0.0302124,0.0338745,0.0320435,0.0219727,0.0796509,0.03479,0.0128174,0.043335,0.000610352,0.0408936,-0.0305176,-0.00976562,0.0100708
138,3,0.0390625,0.0454712,0.0247192,0.0241089,0.0106812,0.0283813,0.0125122,0.0274658,0.015564,0.0479126,-0.0216675,0.0244141,0.0186157
138,4,0.0216675,0.0256348,0.00701904,0.032959,0.0637817,0.022583,0.0231934,-0.0436401,-0.00183105,0.0234985,-0.0250244,0.0271606,0.00518799
139,0,0.0247192,-0.0350952,0.0152588,0.0274658,0.0112915,0.0283813,0.0402832,0.0250244,-0.0164795,-0.000915527,-0.0305176,0.0262451,0.022583
139,1,0.0622559,-0.0231934,-0.00640869,0.0213623,0.0186157,0.0219727,0.039978,0.0344849,0.0164795,0.022583,-0.038147,0.020752,0.0299072
139,2,0.0350952,0.00946045,0.0219727,0.0405884,0.0234985,0.0421143,0.0305176,0.00793457,0.00518799,0.0186157,-0.0274658,0.0192261,0.0164795
139,3,0.0299072,-0.00457764,0.0112915,0.0476074,0.0115967,0.0256348,-0.0177002,0.0289917,0.010376,-0.0296021,-0.0338745,0.015564,0.0210571
139,4,0.0314331,0.0231934,0.00640869,0.0265503,0.0198364,0.00396729,0.0341797,0.0335693,0.0167847,0.0262451,-0.0213623,0.0253296,-0.0384521
140,0,0.0418091,-0.00244141,0.0192261,0.0674438,0.0299072,0.0195312,0.0286865,0.0576782,0.0271606,0.0289917,-0.0500488,0.0320435,0.0271606
140,1,0.0167847,0.00732422,0.0210571,0.0186157,0.00762939,0.0231934,0.0405884,0.0305176,0.0265503,0.0271606,-0.0308228,0.0140381,0.0247192
140,2,0.0115967,0.00457764,0.083313,-0.00183105,0.020752,0.0521851,0.0317383,0.022583,0.0247192,0.0390625,-0.0311279,0.0363159,0.0088501
140,3,0.0311279,0.0305176,0.0308228,-0.00457764,0.022583,0.00762939,-0.00213623,0.0247192,0.0302124,0.0360107,-0.0305176,0.015564,0.0204468
140,4,0.039978,0.0592041,0.0195312,0.00518799,0.0204468,0.0241089,0.0183105,0.0445557,0.0283813,0.0323486,-0.0378418,0.0201416,0.00183105
141,0,0.0494385,0.0360107,0.0222778,0.0112915,0.00823975,0.0128174,0.0445557,0.0286865,0.00610352,0.0323486,-0.0308228,-0.0146484,0.0180054
141,1,0.010376,0.0537109,0.0549316,0.0234985,0.0296021,0.0259399,0.032959,0.0231934,0.0491333,0.0280762,-0.0308228,0.0967407,0.0219727
141,2,0.0305176,0.0427246,0.0393677,-0.012207,0.027771,0.0234985,0.038147,0.0527954,0.0323486,0.0521851,-0.0616455,0.0274658,0.0216675
141,3,0.0216675,0.0250244,0.0289917,-0.0112915,0.0259399,0.0241089,0.0274658,0.0378418,0.0415039,0.0479126,-0.0335693,0.0161743,0.0161743
141,4,0.0521851,0.0567627,0.0164795,-0.022583,0.0112915,0.00518799,0.0619507,0.0418091,0.0292969,0.0634766,-0.0579834,-0.00732422,-0.0112915
142,0,0.027771,0.0402832,0.039978,0.0128174,0.0265503,0.03479,0.0283813,0.0311279,0.0405884,0.0360107,-0.0195312,0.0363159,0.0283813
142,1,0.0375366,0.0439453,0.0186157,0.0180054,0.00183105,-0.0341797,0.0268555,0.017395,0.0317383,0.0357056,-0.0369263,0.0125122,0.020752
142,2,0.0143433,0.0427246,0.0216675,0.0012207,0.0137329,0.0390625,-0.00976562,0.0308228,0.0296021,0.0735474,-0.0378418,0.0256348,0.0125122
142,3,0.000305176,0.039978,0.0244141,0.0323486,0.00457764,0.00427246,0.0250244,0.0152588,0.0286865,0.0183105,-0.0512695,0.0189209,0.010376
142,4,0.0390625,0.000305176,0.0259399,0.0366211,0.0143433,0.012207,0.0265503,0.0427246,0.057373,0.0289917,-0.0369263,-0.00823975,0.0286865
143,0,0.0305176,0.00701904,0.0219727,0.0561523,0.0137329,0.000915527,0.0128174,0.0219727,0.0387573,0.00762939,-0.0280762,0.0234985,0.0265503
143,1,0.0286865,0.00732422,0.0259399,0.0537109,0.0485229,0.00457764,0.0323486,0.0219727,0.0680542,0.0210571,-0.0302124,0.0201416,0.0302124
143,2,0.0521851,0.0128174,-0.00488281,0.00335693,0.0427246,0.0198364,0.0152588,-0.00183105,0.0686646,0.0292969,-0.0482178,0.0183105,0.0134277
143,3,0.0445557,0.0256348,0.0164795,0.0653076,0.00610352,0.00793457,0.0186157,0.0366211,0.0732422,0.0311279,-0.0149536,0.0372314,0.0128174
143,4,0.0241089,0.0189209,0.0112915,0.0442505,0.0296021,0.00518799,0.0280762,0.0448608,0.0857544,0.00427246,-0.0280762,0.0497437,0.00183105
144,0,0.0418091,0.0161743,-0.00366211,0.0411987,0.0128174,-0.0119019,0.0198364,0.0408936,0.0387573,0.0311279,-0.0549316,0.0314331,0.020752
144,1,0.032959,0.0228882,0.0167847,0.0134277,0.0167847,-0.0167847,0.00854492,0.0204468,0.00152588,0.120239,-0.0286865,0.022583,0.06073
144,2,0.0354004,0.020752,0.0259399,0.0271606,-0.0012207,0.0274658,0.0259399,0.0357056,0.0125122,0.0280762,-0.0326538,0.020752,0.0262451
144,3,0.0213623,0.0112915,0.0213623,0.0177002,-0.0088501,0.0305176,0.0140381,0.020752,0.0256348,0.0314331,-0.0299072,0.0228882,0.0369263
144,4,0.0332642,0.0384521,0.0134277,0.015564,0.0268555,0.0195312,0.0280762,0.0167847,0.0326538,0.0442505,-0.0244141,0.0372314,0.0228882
145,0,0.0387573,0.0415039,-0.00366211,0.000305176,0.0167847,-0.0488281,0.0177002,0.0198364,-0.0100708,0.0421143,-0.0363159,0.0302124,0.0238037
145,1,0.0286865,0.0360107,0.00762939,-0.000915527,0.0238037,0.0137329,0.0286865,0.0341797,0.0543213,0.0363159,-0.0369263,0.0485229,0.0244141
145,2,0.0241089,0.0878906,0.0219727,0.00213623,0.0408936,0.0170898,0.0213623,-0.0146484,0.0247192,0.0350952,-0.03479,0.0357056,0.0335693
145,3,-0.0177002,0.0335693,0.0219727,-0.0012207,0.0158691,0.0195312,0.0280762,0.00823975,0.0137329,0.00244141,-0.0299072,0.0253296,0.0338745
145,4,0.0640869,0.0164795,0.0320435,-0.00579834,-0.020752,0.0115967,0.0219727,0.0671387,0.0201416,0.0375366,-0.00549316,0.0296021,0.0506592
146,0,0.0396729,-0.0012207,0.0735474,0.0259399,0.0219727,0.0125122,0.010376,0.0344849,0.0152588,0.0393677,-0.0292969,0.0167847,0.0189209
146,1,0.0335693,0.0488281,0,0.0167847,0.0198364,0.0320435,0.0128174,-0.0311279,0.0219727,0.0311279,-0.0302124,-0.0143433,0.0473022
146,2,0.0332642,0.00457764,0.0259399,0.00427246,0.00671387,0.0180054,0.027771,0.0149536,-0.0149536,0.0415039,-0.0274658,0.0637817,0.0228882
146,3,0.0366211,-0.00213623,0.0393677,0.0167847,-0.000305176,0.017395,0.0167847,0.0314331,0.00457764,0.0552368,-0.0344849,0.0402832,-0.0341797
146,4,0.027771,0.00610352,0.027771,0.0164795,0.00762939,0.0186157,0.0265503,0.0189209,-0.00244141,0.0134277,-0.0442505,0.027771,0.0564575
147,0,0.0140381,0.0247192,0.0195312,0.0323486,0.0372314,0.0125122,0.0106812,0.0219727,0.00579834,0.0268555,-0.0177002,0.0341797,0.0253296
147,1,0.0228882,-0.00396729,0.0238037,0.00976562,0.0198364,0.00915527,0.0524902,0.0216675,0.0253296,0.00488281,-0.0216675,0.0238037,0.038147
147,2,0.0149536,0.00244141,0.012207,0.0454712,0.0198364,0.0305176,0.0128174,-0.000305176,0.0357056,0.0421143,0.00183105,0.0259399,0.022583
147,3,0.0640869,0.0274658,0.0231934,0.0531006,0.0262451,0.043335,0.0518799,0.0256348,0.0323486,0.03479,-0.0305176,0.0283813,0.0390625
147,4,0.0305176,0.0445557,0.0299072,0.0543213,0.0140381,0.0183105,0.0302124,0.0259399,-0.0137329,0.0436401,-0.0189209,0.0201416,-0.0442505
148,0,0.043335,0.0210571,0.0335693,0.0448608,0.0210571,0.0698853,0.0177002,0.020752,-0.0735474,0.0283813,-0.0183105,0.0170898,0.0149536
148,1,0.022583,0.0170898,0.0222778,0.0402832,0.0146484,0.0109863,0.0259399,0.0283813,0.0170898,0.0234985,-0.045166,0.043335,0.0308228
148,2,0.0527954,0.0692749,0.0930786,0.0115967,0.0204468,0.0396729,0.010376,0.0158691,0.0524902,0.06073,-0.0283813,0.0350952,0.0152588
148,3,0.0244141,0.0448608,0.0302124,0.010376,0.0238037,0.0222778,0.00244141,0.0222778,0.100708,0.0354004,-0.0167847,0.0128174,0.0256348
148,4,0.0308228,0.043335,0.0305176,0.0195312,-0.0360107,0.0125122,0.00396729,-0.0149536,0.119629,0.0323486,-0.0259399,0.0201416,0.0231934
149,0,0.0527954,0.055542,-0.000610352,0.0234985,0.00274658,0.0418091,0.00671387,0.0299072,0.117188,0.0567627,-0.0146484,0.0308228,-0.0146484
149,1,0.0317383,0.0427246,0.0152588,0.00213623,0.0112915,0.0183105,0.00274658,0.0292969,0.0665283,0.0161743,-0.0210571,0.0363159,0.00854492
149,2,0.0384521,0.0259399,0.0115967,0.00457764,0.0158691,0,0.0158691,0.0189209,0.0469971,0.0213623,-0.0320435,0.0177002,-0.0109863
149,3,0.0338745,0.0311279,0.0445557,0.0149536,0.0161743,0.00671387,0.0192261,0.0112915,0.012207,0.0408936,-0.010376,0.03479,0.0244141
149,4,0.0289917,0.0128174,0.03479,0.0518799,-0.00274658,0.00793457,0.022583,0.0189209,0.00396729,0.0210571,-0.0473022,0.0326538,0.0341797
150,0,-0.017395,0.0393677,0.0247192,0.0192261,0.0350952,0.00976562,0.032959,0.0106812,-0.0134277,0.0289917,-0.0210571,0.0189209,0.0265503
150,1,0.0308228,0.0100708,0.0241089,0.0137329,0.0106812,0.0228882,0.0231934,0.0244141,-0.0357056,0.0280762,-0.0375366,0.0192261,0.0311279
150,2,0.00762939,0.0170898,0.0216675,-0.0152588,0.0109863,0.0109863,0.0262451,0.0112915,-0.0512695,0.0265503,-0.0668335,0.0283813,0.0314331
150,3,0.0427246,0.0195312,0.0140381,0.0262451,0.0286865,0.0250244,0.0238037,0.0170898,-0.0402832,0.0183105,-0.0180054,0.032959,0.0323486
150,4,0.0357056,0.00854492,0.0714111,0.0411987,0.015564,-0.0375366,0.00183105,0.0183105,-0.0344849,0.0473022,-0.0262451,0.03479,0.0469971
151,0,0.0204468,0.00671387,0.0268555,0.0494385,0.0183105,-0.0244141,0.0177002,0.012207,0.0183105,0.0332642,-0.017395,-0.0561523,0.0280762
151,1,0.043335,0.000610352,0.027771,0.0463867,0.00701904,0.0088501,0.0143433,0.022583,-0.00549316,0.00457764,-0.0683594,0.0262451,0.0515747
151,2,0.0375366,0.00488281,0.0210571,0.0186157,0.0268555,0.0183105,0.03479,0.0186157,0.00274658,-0.0204468,-0.0369263,0.038147,0.0378418
151,3,-0.0192261,0.0201416,-0.000915527,0.0610352,0.0314331,0.00213623,-0.00549316,0.0088501,0.0314331,0.0256348,-0.0350952,0.0405884,0.0189209
151,4,0.0448608,0.00671387,0.0311279,0.0604248,0.010376,0.0869751,-0.0280762,0.0247192,0.0115967,0.022583,-0.0427246,-0.0350952,0.0308228
152,0,0.0363159,-0.0390625,0.0308228,0.0170898,0.00671387,0.012207,0.0247192,0.0253296,0.00396729,0.020752,-0.0241089,0.0283813,0.0244141
152,1,0.0393677,0.0161743,0.0317383,0.0421143,0.0134277,0.0335693,0.0308228,0.0164795,0.0183105,0.0219727,-0.0268555,0.0283813,0.03479
152,2,0.0427246,0.0280762,0.0283813,0.0271606,0.00396729,0.00823975,-0.0405884,0.0119019,0.00610352,0.0259399,-0.0320435,0.0750732,0.0234985
152,3,0.0442505,0.0588989,0.0088501,0.00976562,0.0192261,0.0152588,-0.000610352,0.0143433,-0.015564,0.000305176,-0.0222778,-0.00274658,0.0369263
152,4,0.0363159,0.0436401,0.0338745,0.0216675,0.0164795,0.0299072,0.0283813,0.0161743,0.00366211,0.0234985,-0.0271606,0.0360107,0.0561523
153,0,0.0387573,0.0421143,0.0125122,0.00305176,0.0286865,0.0213623,0.0341797,0.0158691,-0.00274658,0.0164795,-0.0772095,0.0192261,0.0289917
153,1,0.0494385,0.0292969,0.0561523,0.0088501,0.0247192,0.0143433,0.0424194,0.0311279,-0.010376,0.0283813,-0.0274658,0.0253296,0.0750732
153,2,0.0390625,0.0860596,0.00244141,0.00579834,0.0863647,0.0231934,-0.0604248,0.0671387,-0.0354004,-0.00579834,-0.0335693,0.0302124,0.0543213
153,3,-0.0112915,0.113831,0.039978,-0.0634766,0.027771,0.0259399,0.0131226,0.0128174,-0.0216675,-0.0216675,-0.0601196,0.0344849,-0.000610352
153,4,0.0088501,0.098877,0.043335,0.00793457,0.0128174,0.0192261,0.0469971,0.0140381,-0.0360107,0.0100708,-0.0216675,0.022583,0.00732422
154,0,0.0180054,0.0326538,0.0369263,0.00549316,0.0289917,0.0283813,0.0219727,0.00244141,-0.0509644,0.00671387,-0.0183105,0.022583,0.00183105
154,1,0.0216675,0.00366211,0.0253296,-0.0012207,0.0204468,0.0201416,-0.015564,0.0280762,-0.0482178,0.0588989,0,0.0439453,0.0439453
154,2,0.00793457,0.0210571,0.0259399,0.0253296,0.0323486,0.0302124,0.0262451,0.0115967,-0.043335,0.0274658,-0.0234985,0.0515747,0.0134277
154,3,0.0335693,0.00823975,0.0320435,0.0302124,0.0283813,0.0109863,0.0210571,-0.00366211,-0.0473022,0.0146484,-0.0274658,0.0350952,0.0326538
154,4,0.0286865,-0.00427246,0.0366211,0.0262451,-0.0189209,0.0241089,0.0259399,0.0518799,-0.0320435,0.0363159,-0.0466919,0.0210571,0.0189209
155,0,0.0292969,-0.0216675,0.0152588,0.0534058,0.0344849,0.0341797,0.00946045,0.022583,0.0479126,0.03479,-0.0320435,-0.0137329,0.0363159
155,1,0.027771,0.0256348,0.0201416,0.0384521,-0.0241089,0.0186157,0.0299072,0.0280762,0.00427246,0.0167847,-0.0247192,0.0283813,0.0198364
155,2,0.0335693,-0.0274658,0.0228882,0.0585938,0.0369263,0.0259399,0.0488281,0.0198364,0.0134277,0.0265503,-0.015564,0.0311279,0.0256348
155,3,0.03479,-0.0161743,-0.00366211,0.0561523,0.0308228,0.0170898,0.0323486,0.0143433,0.00305176,0.032959,-0.0305176,0.027771,0.0112915
155,4,0.0375366,0.0210571,0.0161743,-0.0210571,0.0299072,0.0241089,0.0463867,0.0131226,0.0012207,0.0494385,-0.0363159,0.0170898,0.0128174
156,0,0.0314331,0.00915527,0.0161743,0.0292969,0.0497437,0.00457764,0.032959,0.0134277,0.0280762,0.0115967,-0.0292969,0.0387573,0.0222778
156,1,0.0866699,0.110474,0.0262451,0.00457764,0.0283813,-0.00335693,-0.0253296,0.0311279,0.0125122,0.0708008,-0.00793457,0.0302124,0.0238037
156,2,0.0274658,0.0836182,0.0299072,0.0268555,0.0622559,0.0369263,0.0296021,-0.0286865,0.00946045,0.0234985,-0.0259399,0.0274658,0.0161743
156,3,0.0213623,0.0860596,0.0308228,0.015564,0.0152588,0.0283813,0.0354004,0.032959,0.0280762,0.0201416,-0.0299072,0.0183105,0.0164795
156,4,0.0317383,0.0247192,0.0222778,0.027771,0.0640869,0.03479,-0.0888062,0.0265503,0.015564,-0.00335693,-0.0256348,0.03479,0.0326538
157,0,0.0210571,0.00854492,0.0308228,-0.00183105,0.00854492,0.0170898,0.0137329,0.0332642,0.0265503,0.0256348,-0.0296021,0.00854492,0.0271606
157,1,0.0366211,0.0350952,0.0164795,-0.0442505,0.0527954,0.0338745,-0.0180054,0.0354004,0.0372314,0.0686646,-0.0247192,0.0497437,0.0247192
157,2,0.0253296,0.0842285,0.0311279,-0.0170898,0.0158691,0.027771,0.0842285,0.0256348,0.0424194,0.0390625,-0.0219727,0.0326538,0.022583
157,3,0.0543213,0.0799561,0.0445557,0.000305176,0.0393677,0.0012207,0.0259399,0.0259399,0.0366211,0.015564,-0.0128174,0.0387573,0.0195312
157,4,0.0314331,0.0598145,-0.0012207,0.000305176,0.0610352,0.0424194,-0.149841,-0.00579834,0.0750732,0.0195312,-0.0250244,0.0836182,0.0363159
158,0,0.0241089,0.0570679,-0.0305176,0.0125122,0.0338745,0.0338745,-0.631714,-0.0109863,0.0445557,0.00366211,-0.0204468,0.022583,0.0186157
158,1,-0.00335693,0.0485229,0.0332642,0.0222778,0.0366211,0.0411987,-0.128479,-0.0115967,0.0442505,0.0640869,-0.0158691,0.0140381,0.045166
158,2,0.00732422,0.0582886,0.0286865,0.0161743,0.0427246,0.0109863,0.0680542,0.0088501,0.0311279,0.0299072,-0.043335,0.0253296,-0.00396729
158,3,0.0302124,0.0622559,0.0192261,0.0442505,0.0247192,0.0177002,0.0894165,0.012207,0.0289917,-0.0421143,-0.0222778,0.0195312,0.00946045
158,4,0.0192261,0.0561523,0.0210571,0.027771,0.0418091,0.0177002,-0.12085,0.00671387,-0.0109863,0.0216675,-0.0259399,0.00518799,0.0192261
159,0,0.0540161,0.0488281,0.0292969,0.0509644,0.0363159,0.0231934,-0.171204,0.03479,0.03479,0.0201416,-0.0128174,0.0152588,0.0268555
159,1,0.0180054,0.0738525,0.0149536,0.0411987,0.0338745,0.0167847,-0.0802612,0.0280762,0.0387573,0.0192261,-0.0177002,0.0195312,0.0457764
159,2,0.0161743,0.0247192,0.0198364,0.0442505,0.0259399,0.00427246,-0.108643,0.0369263,0.0448608,0.0170898,-0.0506592,0.0204468,0.0326538
159,3,0.00762939,0.0299072,0.00518799,0.0384521,0.00640869,-0.0289917,-0.012207,0.0201416,0.126648,0.0106812,-0.0161743,-0.03479,0.0308228
159,4,0.0119019,0.0262451,0.0143433,0.0390625,-0.00366211,0.0958252,0.050354,-0.00610352,-0.0164795,0.0286865,-0.032959,0.0131226,0.0393677
160,0,0.0228882,0.0338745,0.0256348,0.0457764,0.0161743,0.0222778,0.0701904,0.0323486,0.0543213,0.0582886,-0.0189209,0.0280762,0.0372314
160,1,0.0234985,0.00762939,0.017395,0.0396729,0.00366211,0.0308228,0.0982666,0.0137329,0.065918,0.0146484,-0.0271606,0.00823975,0.0601196
160,2,0.0146484,-0.0131226,-0.00915527,0.0378418,0.0454712,0.0680542,0.19989,0.0198364,0.057373,0.0161743,-0.0311279,0.010376,0.0125122
160,3,0.0149536,0.00457764,0.0466919,0.0201416,0.0289917,0.0262451,0.187683,0.0180054,0.0637817,0.000610352,-0.0186157,0.0201416,0.0454712
160,4,0.0170898,0.00152588,0.0506592,0.0177002,0.012207,0.045166,0.177002,0.0369263,0.0756836,0.0268555,-0.0585938,0.020752,0.027771
161,0,0.0604248,-0.00823975,0.0268555,0.0152588,0.0137329,0.020752,0.140076,0.0448608,0.0762939,0.017395,0.0137329,0.0286865,0.0256348
161,1,0.0146484,0.00213623,0.0567627,-0.0125122,0.0308228,0.0274658,0.105896,0.0177002,0.0784302,-0.0234985,-0.0421143,0.0396729,0.000305176
161,2,0.0280762,-0.00854492,0.038147,-0.00976562,0.0299072,0.0241089,0.132446,0.0164795,0.0601196,0.00946045,-0.0228882,0.0180054,0.0332642
161,3,0.0213623,0.00671387,0.0271606,0.00701904,0.0363159,0.0344849,0.108337,0.0308228,0.0421143,0.0177002,-0.0210571,0.0265503,0.0234985
161,4,0.000610352,0.0140381,0.0299072,0.00671387,0.03479,0.0189209,0.110168,0.0234985,0.0344849,0.0421143,-0.0186157,0.0134277,-0.0128174
162,0,0.0161743,-0.0115967,0.0259399,0.0170898,-0.0314331,0.0289917,0.0991821,-0.00366211,0.0100708,0.0115967,-0.0201416,0.0662231,0.0250244
162,1,0.00366211,0.00610352,0.0219727,-0.0152588,0.0320435,0.0280762,0.0933838,0.0119019,-0.00518799,0.015564,-0.0222778,0.032959,0.0180054
162,2,0.00488281,0.0115967,0.0158691,0.0274658,0.0274658,0.0216675,0.0741577,0.00915527,-0.0445557,0.0259399,-0.0265503,-0.000610352,-0.0088501
162,3,0.0250244,0.0222778,0.0314331,0.0317383,0.0369263,0.100098,0.0836182,-0.00732422,-0.0741577,-0.00823975,-0.00701904,0.0646973,0.0460815
162,4,0.0198364,0.0292969,0.0942993,0.0576782,0.0128174,0.0418091,0.0869751,0.0222778,-0.0820923,-0.00183105,-0.0265503,-0.0274658,0.043335
163,0,0.0195312,0.0292969,0.010376,0.0518799,0.0317383,0.0405884,0.0665283,0.0131226,-0.0341797,-0.00213623,-0.0308228,0.045166,0.0253296
163,1,-0.00213623,0.0259399,0.0213623,0.0961304,0.0146484,0.0296021,0.0683594,0.0170898,-0.0558472,0.00183105,-0.0393677,0.0335693,0.0183105
163,2,0.0161743,-0.00976562,0.0286865,0.0665283,0.0305176,0.0320435,0.0592041,0.0390625,-0.0460815,0.00915527,-0.0646973,0.0268555,0.038147
163,3,0.0177002,-0.0140381,0.0363159,0.0579834,0.0271606,0.039978,0.0601196,0.0326538,-0.0500488,0.00457764,-0.0109863,0.0149536,0.0521851
163,4,0.00396729,-0.0234985,0.020752,0.0363159,0.0686646,0.0357056,0.0622559,-0.0592041,-0.0646973,-0.00335693,-0.0115967,0.0732422,0.017395
164,0,0.015564,0.0894165,0.00427246,0.0543213,0.0283813,0.022583,0.0421143,0.0177002,-0.0250244,-0.00671387,-0.0247192,0.0247192,0.0378418
164,1,0.0222778,0.0411987,-0.0228882,0.0469971,0.00579834,0.03479,0.0604248,0.0112915,-0.00823975,0.00396729,-0.0314331,0.0152588,-0.00366211
164,2,0.0204468,0.0253296,0.0268555,0.0741577,0.0335693,0.0372314,0.0445557,0.00640869,0.022583,0.0170898,-0.0289917,0.0201416,0.0500488
164,3,0.020752,0.0311279,0.0192261,0.0280762,0.0341797,0.00335693,0.0512695,0.0125122,0.0427246,0.0100708,-0.0262451,0.00976562,0.0247192
164,4,0.00793457,0.0543213,0.0299072,-0.00671387,0.0311279,0.0262451,0.085144,0.0201416,0.00793457,0.00488281,-0.0299072,0.0146484,0.0421143
165,0,0.0183105,0.0515747,0.0192261,0.0299072,0.0424194,0.0167847,0.0320435,0.0125122,0.0320435,-0.0204468,-0.0201416,0.00335693,0.0274658
165,1,0.015564,0.0274658,0.032959,0.0357056,0.0354004,0.0268555,0.0360107,0.00579834,0.0442505,0.0106812,-0.0292969,0.00823975,-0.0231934
165,2,0.0262451,0.0384521,0.0601196,0.0262451,0.0271606,0.0595093,0.0375366,0.0146484,-0.0350952,0.0286865,-0.0244141,0.0238037,0.0192261
165,3,0.0234985,0.0515747,0.0183105,-0.00183105,0.0283813,-0.0167847,0.0326538,0.0244141,0.0671387,0.020752,-0.0161743,0.043335,0.0161743
165,4,0.0186157,0.0814819,0.0100708,0.0143433,0.00976562,0.0213623,0.0338745,0.0115967,0.0405884,0.015564,-0.0228882,0.0482178,0.0476074
166,0,0.0253296,0.0271606,0.00335693,0.0228882,0.0308228,0.0421143,0.0485229,0.0198364,0.0109863,0.0524902,-0.0180054,0.0149536,0.0149536
166,1,0.0296021,0.0308228,0.00549316,-0.0247192,0.071106,0.0582886,0.0762939,0.012207,0.00823975,0.0704956,-0.0106812,0.0180054,-0.0012207
166,2,0.0448608,0.0109863,0.0137329,0.0335693,0.0274658,0.0292969,0.0186157,-0.0268555,0.015564,0.0134277,-0.0305176,0.0189209,0.0256348
166,3,0.0128174,0.0149536,-0.00274658,0.0500488,0.0137329,0.0906372,0.0326538,0.0128174,0.0311279,0.00152588,0.00579834,0.00915527,0.0177002
166,4,0.00823975,0.0335693,0.00823975,0.0567627,0.0231934,0.0640869,0.0183105,0.027771,0.0183105,0.00732422,-0.0283813,0.0183105,0.0149536
167,0,0.017395,-0.00213623,-0.00457764,0.0610352,0.039978,0.0213623,0.0238037,-0.00793457,0.0387573,0.0152588,-0.027771,0.0186157,0.0112915
167,1,0.0119019,-0.0650024,0.00579834,0.0701904,0.022583,0.0335693,0.0210571,0.00183105,0.0518799,0.0311279,-0.0332642,0.0268555,-0.00183105
167,2,0.0088501,-0.083313,0.0137329,0.0601196,0.022583,0.0149536,-0.0115967,0.0149536,0.0421143,0.0384521,-0.0137329,0.0540161,0.0183105
167,3,-0.015564,-0.0735474,0.0183105,0.0531006,0.0280762,0.0332642,0.0250244,0.00549316,0.0146484,0.0195312,-0.0253296,0.015564,0.0302124
167,4,0.0131226,-0.0900269,0.0457764,0.0512695,0.015564,0.0167847,0.017395,0.0247192,0.0366211,0.0338745,-0.0421143,-0.0326538,0.0247192
168,0,0.0344849,-0.0897217,0.0250244,0.0704956,0.0546265,0.0402832,0.017395,0.0308228,-0.00946045,0.00976562,-0.0274658,0.0164795,0.022583
168,1,0.0198364,-0.0653076,0.00335693,0.0518799,0.015564,0.0305176,-0.0106812,0.0540161,0.00518799,0.0442505,-0.0448608,0.0164795,0.0152588
168,2,0.00854492,0.0360107,0.0418091,0.0378418,0.0292969,0.0793457,0.0326538,0.022583,-0.0189209,0.00244141,-0.0231934,0.0119019,0.0302124
168,3,0.0228882,0.151978,0.0265503,0.0531006,0.0177002,0.0567627,0.0115967,-0.00396729,0.00762939,0.0247192,-0.00305176,0.0228882,0.0292969
168,4,0.0177002,0.19104,0.022583,0.0518799,0.0268555,0.0256348,0.0271606,0.0109863,0.0238037,0.0265503,-0.0234985,0.0350952,0.0210571
169,0,0.0234985,0.116882,0.0234985,0.0344849,0.0415039,0.0326538,0.00915527,0.032959,0.0201416,0.0289917,-0.0216675,0.0250244,0.0671387
169,1,0.0247192,0.104065,0.00610352,-0.015564,0.0299072,0.0302124,0.0320435,0.0292969,0.0396729,0.00274658,-0.0183105,0.0219727,0.00671387
169,2,0.0241089,0.10437,-0.0177002,0.0265503,0.0296021,0.0506592,0.0128174,0.0219727,0.0137329,-0.0143433,-0.0164795,0.0488281,0.0186157
169,3,0.0204468,0.108643,0.00518799,0.0164795,-0.0213623,0.0244141,0.00854492,0.0387573,0.0338745,0.0341797,-0.0149536,0.0372314,0.0292969
169,4,0.00610352,0.0234985,-0.00152588,0.0289917,0.0360107,0.0231934,0.0219727,0.0183105,0.0265503,0.0137329,-0.00152588,0.00244141,0.0161743
170,0,0.0106812,0.0411987,0.027771,0.0421143,-0.0213623,0.0183105,0.0195312,0.0234985,0.0506592,0.0302124,-0.0390625,0.0183105,0.0186157
170,1,0.0143433,0.0125122,0.00457764,0.0292969,0.0534058,0.0134277,0.00518799,0.0366211,0.0643921,0.017395,-0.0238037,0.0180054,0.010376
170,2,0.0183105,0.0256348,-0.0656128,0.0231934,0.020752,-0.0302124,0.0198364,0.0170898,0.0241089,0.0323486,-0.0210571,0.0332642,0.0250244
170,3,0.0158691,0.0421143,0.000610352,0.0479126,0.0430298,0.0515747,0.0250244,0.0140381,0.0460815,0.0274658,0.0177002,0.0100708,0.00366211
170,4,0.0177002,0.0427246,0.0106812,0.045166,0.0567627,0.0262451,0.0213623,0.03479,0.022583,0.0128174,-0.0323486,0.0180054,0.0234985
171,0,0.0161743,0.0302124,0.0192261,0.0585938,0.0411987,0.0375366,0.0335693,-0.0201416,0.0442505,0.0216675,-0.0228882,0.0183105,0.00579834
171,1,0.0231934,0.00671387,0.0128174,0.0723267,0.0183105,0.0408936,0.0192261,0.0296021,0.0286865,0.0241089,0.020752,0.0152588,0.0189209
171,2,0.0289917,-0.0253296,0.0137329,0.0744629,0.0241089,0.0491333,0.0830078,0.0427246,0.0262451,0.0772095,-0.0286865,0.0195312,0.0613403
171,3,0.00549316,-0.0299072,0.0152588,0.0701904,0.0140381,0.0317383,0.0177002,0.0326538,0.00762939,-0.0286865,-0.0134277,0.0189209,-0.0491333
171,4,-0.0119019,0.0186157,0.0112915,0.0759888,0.010376,0.03479,0.0485229,0.0457764,-0.00335693,0.0421143,-0.0222778,0.00457764,0.0164795
172,0,-0.00213623,0.0527954,0.0311279,0.0775146,-0.00915527,0.0350952,-0.169983,0.000915527,-0.0186157,0.0149536,-0.0231934,0.0115967,0.0341797
172,1,0.000915527,-0.06073,0.0231934,0.0662231,0.0317383,0.0360107,0.0143433,0.0305176,-0.0366211,-0.00823975,-0.0238037,0.0140381,-0.00274658
172,2,0.015564,-0.0857544,0.017395,0.0384521,0.0088501,0.0283813,0.0482178,0.0164795,-0.0250244,0.0274658,-0.0473022,0,0.0164795
172,3,0.00427246,-0.032959,0.0357056,0.0152588,0.0326538,0.0253296,0.00579834,0.0332642,-0.0137329,0.00549316,-0.0216675,0.0552368,0.0180054
172,4,0.00183105,-0.0512695,0.0143433,0.0421143,0.0308228,0.0146484,0.012207,0.0393677,0.0213623,0.00457764,-0.0186157,0.0213623,0.0213623
173,0,0.00732422,-0.0238037,0.039978,0.0527954,0.0234985,0.0177002,0.00793457,0.0228882,0.0238037,-0.0234985,-0.0460815,0.0247192,0.0772095
173,1,0.00762939,-0.038147,0.0140381,-0.00366211,0.0369263,0.0305176,-0.387878,0.0332642,0.0305176,0.0320435,-0.0183105,0.00305176,0.00396729
173,2,0.0213623,-0.0473022,0.0198364,-0.000915527,0.0393677,0.0125122,0.0415039,0.0360107,0.0701904,-0.0244141,-0.0253296,0.0323486,0.0198364
173,3,0.0234985,0.0119019,0.0372314,0.00915527,0.020752,0.0265503,0.0579834,0.0344849,0.0463867,0.00915527,-0.0183105,-0.000610352,0.0198364
173,4,0.0131226,0.0164795,0.0463867,0.0134277,0.0222778,0.0299072,0.0775146,0.0299072,0.039978,0.0289917,-0.0274658,0.00976562,0.0100708
174,0,0.0305176,0.128479,0.0405884,0.0158691,0.0366211,0.0131226,0.0579834,0.0946045,0.0268555,0.0238037,-0.0210571,-0.010376,0.0143433
174,1,0.0201416,0.128479,0.0183105,0.0366211,0.0283813,0.0308228,0.0579834,0.0421143,-0.00701904,0.0143433,-0.0540161,0.0167847,0.0238037
174,2,0.00427246,0.0848389,0.0167847,0.0216675,0.0241089,0.0354004,0.067749,0.0213623,0.00976562,0.00946045,-0.0268555,0.00640869,0.0283813
174,3,0.00762939,0.0823975,0.0167847,0.0299072,0.0653076,0.0192261,0.0488281,0.0595093,0.0299072,0.0253296,-0.0137329,-0.00793457,0.0106812
