Devices
1000
,,Myon - Voltage,,,,,,,,,,,,,
Frame,Sub Frame,GC-M,TA,SOL,VM,VL,RF,BF,ST,GLUT-M,EO,Gracilis,GC-L,Semimembranosus
,,V,V,V,V,V,V,V,V,V,V,V,V,V
1,0,0.020752,0.0390625,0.0326538,-2.86072,0.0164795,0.0994873,0.0274658,0.022583,0.0112915,0.55542,-0.0164795,-0.0231934,0.0241089
1,1,0.010376,0.0698853,0.0283813,-2.32513,0.0268555,0.00671387,0.0256348,0.0189209,-0.0402832,0.519714,-0.022583,0.0106812,0.0256348
1,2,0.0167847,0.0628662,0.0119019,-0.730896,0.0146484,0.0265503,0.0216675,0.0527954,0.0726318,0.541992,-0.0286865,0.0537109,0.020752
1,3,0.0283813,0.0643921,0.0115967,1.51245,0.0320435,0.0296021,0.0213623,0.0238037,0.0106812,0.52002,-0.0216675,0.0216675,0.0177002
1,4,0.0158691,0.0442505,0.0146484,3.18268,0.0430298,0.0427246,0.062561,0.0302124,0.00396729,0.579834,-0.0335693,0.0238037,0.0906372
2,0,0.0250244,0.0656128,0.00823975,3.30566,0.0634766,0.0335693,0.0262451,0.0106812,0.00457764,0.496216,-0.0262451,0.0180054,-0.00335693
2,1,0.022583,0.0250244,-0.0344849,3.32825,0.0256348,0.038147,0.00366211,0.0253296,0.0177002,0.490417,-0.017395,0.0158691,0.101624
2,2,0.017395,0.0146484,0.0112915,3.30261,0.0350952,0.0396729,0.0332642,0.0164795,0.0335693,0.126648,-0.0146484,0.0830078,0.0280762
2,3,0.0140381,-0.0375366,0.0238037,3.24097,0.0012207,0.038147,0.0512695,0.0521851,0.0292969,0.273438,-0.0164795,0.0137329,0.0219727
2,4,0.0216675,0.00823975,0.0213623,3.14514,0.00366211,0.0289917,0.032959,0.03479,0.0167847,0.251465,-0.0216675,0.0192261,0.0161743
3,0,0.0192261,-0.0170898,0.0189209,3.07159,0.0344849,0.0695801,0.0299072,0.010376,0.0164795,0.145874,-0.0189209,0.0317383,0.0180054
3,1,0.0247192,-0.0286865,0.020752,2.16553,0.00793457,0.0247192,0.0158691,0.055542,0.0146484,0.0238037,-0.0354004,0.0250244,0.0350952
3,2,0.0210571,-0.00213623,0.022583,0.534363,0.0308228,0.0305176,0.0378418,0.0326538,0.0927734,-0.103455,-0.0299072,-0.00305176,0.00915527
3,3,0.00366211,0.0231934,0.015564,-1.49841,0.0332642,0.0366211,0.0177002,0.0012207,0.0311279,0.0924683,0.0259399,0.00518799,0.0195312
3,4,0.0283813,0.00427246,0.0289917,-3.1488,0.0427246,0.0238037,0.0314331,0.0350952,0.0250244,0.139465,-0.0485229,0.0259399,0.0280762
4,0,0.00488281,0.0100708,0.0167847,-3.18329,0.00732422,0.00549316,0.0408936,0.0363159,0.0219727,0.10376,-0.0271606,0.0158691,0.0195312
4,1,0.0115967,0.0189209,0.0314331,-3.1665,0.0192261,0.0427246,0.0238037,0.0289917,0.0320435,0.0817871,-0.0210571,-0.00732422,0.0402832
4,2,0.0149536,0.0512695,0.0350952,-3.14331,0.0274658,0.0387573,0.0189209,0.0402832,0.0228882,0.0491333,-0.0366211,0.0213623,0.0131226
4,3,0.0112915,0.0256348,0.0247192,-3.07465,0.0299072,0.0100708,0.0247192,0.0256348,0.0286865,0.0119019,-0.0262451,0.000915527,0.00854492
4,4,0.050354,-0.010376,0.0286865,-2.98431,0.00640869,0.0146484,0.0234985,0.0393677,0.0289917,-0.151367,-0.03479,0.0296021,0.0256348
5,0,0.0476074,0.012207,-0.0466919,-2.89154,0.0375366,-0.0350952,0.0323486,0.039978,0.0344849,-0.0778198,-0.0332642,0.0161743,0.0219727
5,1,0.0137329,-0.0344849,0.00518799,-2.47742,0.0704956,0.00671387,0.0323486,0.0524902,0.0177002,-0.0466919,-0.0393677,0.0100708,0.0216675
5,2,0.0286865,0.0384521,0.00732422,-0.805664,0.0259399,0.0244141,0.0299072,0.0198364,0.0366211,-0.942688,-0.0213623,0.0497437,0.0210571
5,3,0.0454712,0.0610352,0.0128174,1.36108,0.0183105,0.0302124,0.0271606,0.0515747,0.0286865,-0.107117,-0.0292969,0.0552368,0.015564
5,4,0.0140381,0.0125122,0.017395,3.2428,0.0161743,0.010376,0.0271606,0.0375366,0.0830078,-1.31775,-0.0128174,0.0344849,0.0341797
6,0,0.0125122,0.0201416,-0.0088501,3.31329,0.0369263,-0.0216675,0.0137329,0.0198364,0.0430298,-0.065918,-0.027771,0.0189209,0.017395
6,1,0.0125122,0.00366211,0.0198364,3.31573,0.0366211,0.0317383,0.038147,0.0247192,0.0265503,0.133667,0.0186157,0.0231934,0.0119019
6,2,0.00732422,0.00671387,0.0497437,3.30902,0.0125122,0.0546265,0.0238037,0.0308228,0.0323486,-1.50116,-0.0238037,-0.00305176,-0.0106812
6,3,0.0256348,0.0317383,0.0326538,3.26111,0.0726318,0.012207,0.0305176,0.0244141,0.0216675,-1.80603,-0.0167847,0.00427246,0.0222778
6,4,0.00823975,0.00427246,0.0125122,3.172,0.0354004,0.0143433,0.0424194,0.0286865,0.0311279,-1.67084,-0.0137329,0.0183105,0.0198364
7,0,0.0152588,0.000915527,0.0369263,3.01575,0.0332642,0.0341797,0.00518799,0.0418091,0.0299072,-1.30096,-0.0125122,0.00274658,0.0189209
7,1,0.0137329,-0.0119019,0.0216675,2.57996,0.00183105,0.0436401,0.0216675,0.0357056,0.0131226,-0.641479,-0.0152588,0.0204468,0.0109863
7,2,-0.00152588,0.0164795,0.022583,0.709534,0.0314331,0.032959,0.0979614,0.0302124,0.0271606,0.510254,-0.00671387,0.0186157,0.00518799
7,3,0.0167847,0.0506592,0.0323486,-1.29791,-0.0302124,0.0143433,0.0289917,-0.0268555,0.0152588,0.661316,-0.00396729,0.00915527,0.00946045
7,4,0.0134277,0.0161743,0.00946045,-3.19275,0.0158691,0.0265503,-0.0192261,0.0259399,0.0415039,0.678406,-0.0302124,0.0170898,0.0622559
8,0,0.0204468,-0.0106812,0.0280762,-3.18604,-0.0100708,0.0320435,0.0283813,-0.0180054,0.039978,0.613708,-0.0521851,0.0296021,0.0338745
8,1,0.0210571,-0.00671387,0.0109863,-3.17383,0.0250244,0.0442505,0.027771,0.0286865,-0.000915527,0.537109,-0.0210571,0.00183105,0.020752
8,2,0.0222778,-0.00244141,0.00946045,-3.17444,0.0192261,0.0158691,0.0259399,0.0302124,0.00762939,0.484619,-0.0228882,0.00305176,0.0177002
8,3,-0.000915527,0.000610352,0.0164795,-3.12836,0.0164795,0.0302124,0.0286865,0.039978,0.0354004,0.458069,-0.0238037,0.00488281,-0.0445557
8,4,0.0244141,0.00946045,-0.0088501,-2.9715,0.0283813,0.0271606,0.0396729,0.0286865,0.0247192,0.375061,-0.0158691,0.0137329,0.0210571
9,0,0.0140381,-0.00427246,0.00976562,-2.92572,-0.015564,0.0204468,0.0558472,0.0558472,0.0439453,0.337524,-0.0131226,0.00305176,0.00457764
9,1,0.0180054,0.00152588,0.0241089,-2.65259,0.0271606,0.0289917,0.0119019,0.0234985,0.0302124,0.299377,-0.015564,0.0186157,0.00762939
9,2,0.0143433,0.0106812,0.015564,-1.08887,0.0787354,0.0213623,0.0338745,0.0311279,0.0192261,0.238342,-0.0192261,-0.0271606,0.0189209
9,3,0.020752,0.0012207,0.0271606,1.0202,0.0482178,0.0280762,0.0323486,0.0650024,0.0247192,0.214233,-0.00396729,0.0415039,0.0106812
9,4,0.0183105,0.0112915,0.00823975,2.94769,0.0354004,0.0299072,0.0448608,0.0186157,0.0247192,0.147095,-0.0152588,0.00915527,0.0161743
10,0,0.00579834,0.0653076,0.00793457,3.30383,0.0592041,0.0366211,0.045166,0.038147,0.022583,0.132446,-0.0213623,0.00793457,0.0100708
10,1,0.0189209,0.000915527,0.0125122,3.3136,0.00579834,0.0259399,0.0314331,0.0317383,0.0250244,0.115662,-0.0256348,0.0308228,0.0192261
10,2,0.0222778,0.0152588,0.0253296,3.34106,0.0134277,0.0164795,0.0579834,0.0421143,0.0234985,0.0869751,-0.0241089,0.00671387,0.0247192
10,3,0.0234985,0.0152588,0.027771,3.2428,0.0192261,0.0192261,0.0469971,0.0274658,-0.00366211,0.0820923,-0.0189209,0.00640869,0.00823975
10,4,0.0183105,0.0424194,0.0198364,3.15857,0.0088501,0.0128174,0.0296021,0.0140381,0.0265503,0.0476074,-0.0369263,0.0250244,0.020752
11,0,0.0241089,0.0164795,0.0112915,3.02673,0.0256348,0.0192261,0.0485229,0.0216675,0.0256348,0.0341797,-0.0280762,-0.0106812,0.0143433
11,1,0.0128174,-0.0112915,0.0201416,2.50916,0.0350952,0.043335,0.00976562,0.0283813,0.0250244,-0.0109863,-0.0180054,0.000915527,0.0180054
11,2,0.00732422,-0.00671387,0.0296021,0.897217,0.022583,0.0183105,0.038147,0.0167847,0.0259399,-0.0164795,-0.0088501,0.0238037,-0.00915527
11,3,-0.0128174,-0.0128174,0.0140381,-1.20911,0.0137329,0.0292969,0.0479126,0.0311279,0.0183105,-0.0375366,-0.0204468,0.020752,0.00213623
11,4,0.0213623,0.0134277,0.0286865,-3.18787,0.00335693,0.0115967,0.03479,0.0164795,0.0299072,-0.0296021,0.00610352,0.0149536,0.0137329
12,0,0.0323486,0.00549316,0.0717163,-3.18634,0.0286865,0.0012207,0.0350952,0.0482178,0.0292969,-0.0506592,-0.0378418,0.0268555,0.0271606
12,1,0.0280762,0.0177002,0.0305176,-3.16345,0.022583,0.0271606,0.0418091,0.0354004,0.0238037,-0.0689697,-0.0219727,0.0183105,0.0195312
12,2,0.0222778,0.00488281,0.00671387,-3.17963,0.0219727,0.0341797,0.0280762,0.0247192,0.00335693,-0.0491333,-0.0231934,0.0216675,0.00427246
12,3,0.0338745,0.0500488,0.0195312,-3.08075,0.0463867,0.0140381,0.0152588,0.0137329,0.0326538,-0.0683594,-0.0146484,0.0241089,0.015564
12,4,0.0332642,0.0439453,-0.0308228,-3.03833,0.0427246,0.0198364,0.0509644,0.0262451,0.0500488,-0.067749,-0.022583,0.0238037,0.010376
13,0,0.0152588,0.0701904,0.0344849,-2.88666,0.0234985,-0.0216675,0.0265503,0.0350952,0.0125122,-0.0949097,-0.0296021,0.0210571,0.0308228
13,1,0.0164795,0.0140381,0.00183105,-2.67456,0.0201416,0.0125122,0.0457764,0.0485229,0.0308228,-0.130005,-0.0335693,0.0134277,0.010376
13,2,0.0265503,-0.000915527,0.010376,-1.03149,0.020752,0.0311279,0.0320435,-0.00335693,0.0292969,-0.0836182,-0.0198364,0.0250244,0.0143433
13,3,0.0100708,-0.0134277,0.0335693,0.969849,0.022583,0.0146484,0.0283813,0.0186157,0.0326538,-0.107117,-0.0216675,0.0259399,0.0100708
13,4,0.0256348,0.00793457,0.022583,2.9538,0.0308228,0.0408936,0.0186157,0.022583,0.0360107,-0.0973511,0.0100708,0.0216675,0.0198364
14,0,0.0326538,0.0219727,0.0332642,3.302,0.0283813,0.038147,0.0344849,0.0247192,0.0219727,-0.110168,-0.0408936,0.0299072,0.0186157
14,1,0.0320435,0.0262451,0.0259399,3.33191,0.0192261,0.0195312,0.0192261,0.0369263,0.0430298,-0.107422,-0.0720215,0.012207,0.03479
14,2,0.0137329,0.00732422,0.022583,3.30933,0.0183105,0.0363159,0.0375366,0.0238037,0.012207,-0.121155,-0.0305176,0.0341797,0.0146484
14,3,0.0143433,0.0274658,-0.00915527,3.22998,0.00305176,0.0296021,0.0335693,0.0234985,0.0183105,-0.124817,-0.0146484,0.0012207,0.00793457
14,4,0.0256348,0.0088501,0.0183105,3.13171,0.0204468,0.0247192,0.0152588,0.0332642,-0.00427246,-0.124817,-0.0320435,-0.00549316,0.0354004
15,0,0.0460815,0.012207,0.020752,3.00934,0.039978,0.00457764,-0.00549316,0.00823975,0.0286865,-0.240479,-0.0268555,0.0213623,0.0186157
15,1,0.0256348,0.0210571,-0.0100708,2.71851,0.00610352,0.0140381,0.038147,0.0418091,0.0219727,-1.5271,-0.0308228,0.022583,0.0189209
15,2,0.0125122,0.0115967,0.0268555,1.12274,0.0262451,0.0296021,0.0372314,0.0424194,0.015564,-1.65314,-0.0320435,0.00915527,-0.00213623
15,3,0.0198364,0.00305176,0.0561523,-0.905151,0.0180054,0.0708008,0.0289917,0.0402832,0.0280762,-1.36139,-0.0253296,0.0180054,0.0357056
15,4,0.0271606,0.0253296,-0.0106812,-2.98584,0.0363159,0.0778198,0.0112915,0.0396729,0.0491333,-1.19629,-0.020752,0.0262451,0.0305176
16,0,0.0195312,-0.00152588,0.0241089,-3.16101,0.0271606,0.0494385,0.043335,0.0219727,0.0161743,-0.867615,-0.0326538,0.0274658,0.0186157
16,1,0.0216675,0.00427246,0.0125122,-3.18726,0.0469971,0.00396729,0.0271606,0.0384521,0.0274658,-0.406494,-0.03479,0.00793457,0.0405884
16,2,0.0323486,-0.00335693,0.0357056,-3.20557,0.0140381,0.017395,0.0311279,0.0262451,0.00823975,0.0390625,-0.0296021,0.0219727,0.00854492
16,3,0.0192261,0.0262451,0.0436401,-3.14178,0.0186157,0.0244141,0.0396729,-0.0372314,0.0253296,0.374451,-0.0650024,0.0210571,0.0308228
16,4,0.0164795,0.0247192,0.0393677,-3.0954,0.0192261,0.045166,0.115967,0.039978,0.0296021,0.43457,-0.0210571,0.0201416,0.071106
17,0,0.0384521,0.0292969,0.0247192,-2.90894,0.0299072,0.0177002,0.0204468,0.0231934,0.0357056,0.427246,-0.0189209,0.032959,0.00610352
17,1,0.0149536,-0.0149536,0.000610352,-2.82959,0.0393677,0.0204468,0.0305176,0.0128174,0.03479,0.456543,-0.0387573,-0.00396729,0.0234985
17,2,0.0311279,0.0390625,-0.00274658,-1.64246,0.0088501,0.0363159,0.0363159,0.0317383,0.0296021,0.389709,-0.0292969,0.0131226,0.0222778
17,3,0.0540161,0.020752,0.00488281,0.582275,0.0198364,0.0247192,-0.0146484,0.0308228,0.0350952,0.3479,-0.0296021,0.0177002,0.0259399
17,4,0.0219727,0.0259399,0.00213623,2.73529,0.0283813,0.027771,0.0146484,0.00427246,0.0112915,0.211792,-0.00762939,0.0427246,0.0466919
18,0,0.038147,0.0167847,0.00640869,3.34534,0.0134277,0.0112915,-0.0228882,0.0323486,0.0192261,0.123901,-0.0283813,0.0210571,0.0125122
18,1,0.0750732,0.0100708,0.00183105,3.30872,0.0244141,0.0125122,0.0311279,0.038147,0.0363159,0.232849,-0.0311279,0.0527954,0.0131226
18,2,0.0378418,0.0012207,0.0100708,3.26233,0.0500488,0.0180054,0.0411987,0.03479,0.0396729,0.234985,-0.043335,0.0259399,0.0646973
18,3,0.0411987,0.00854492,0.00946045,3.27179,0.0213623,0.0247192,0.0466919,0.0326538,0.0402832,0.181274,-0.0177002,0.0454712,0.0222778
18,4,0.038147,0.0183105,-0.017395,3.18878,0.0253296,-0.0598145,0.0299072,0.0274658,0.00396729,0.13916,-0.0341797,0.0183105,0.0213623
19,0,0.0317383,-0.0262451,0.0137329,3.05115,0.0228882,0.0167847,0.0241089,0.0350952,0.03479,0.117188,-0.0292969,0.0265503,0.0222778
19,1,0.0296021,-0.00610352,0.0250244,2.95685,0.0219727,0.0222778,0.0408936,0.0250244,0.038147,-0.132141,-0.027771,0.0219727,0.057373
19,2,0.0186157,0.0164795,0.00732422,1.67297,0.0390625,0.0283813,0.0280762,0.0372314,0.0543213,-0.71106,-0.0354004,0.0177002,0.0247192
19,3,0.0396729,0.0366211,0.00610352,-0.491333,0.0427246,0.0213623,0.0323486,0.0335693,0.0204468,-0.910034,-0.0201416,0.0271606,0.0149536
19,4,0.0317383,0.00762939,0.0213623,-2.59521,0.00366211,0.0299072,0.0195312,0.038147,0.00152588,-0.311584,-0.0292969,0.0231934,0.0369263
20,0,0.0427246,0.0170898,0.0299072,-3.19214,0.0161743,0.00152588,0.0250244,0.017395,0.0292969,-1.85608,-0.032959,0.010376,0.0250244
20,1,0.0308228,0.0146484,0.00152588,-3.18573,0.0128174,-0.00274658,0.0317383,0.0308228,0.0219727,-2.04071,-0.0378418,0.0402832,0.0360107
20,2,0.0344849,0.0271606,0.0186157,-3.19763,-0.0012207,0.0256348,0.00793457,-0.0219727,0.0186157,-1.81702,-0.0482178,0.03479,0.0363159
20,3,0.0292969,0.0616455,0.020752,-3.14392,0.0274658,0.0146484,0.0619507,0.0326538,0.0518799,-0.0799561,-0.0323486,0.0210571,0.0292969
20,4,0.0531006,0.0415039,0.0210571,-3.05328,-0.00457764,0.0161743,0.017395,0.0335693,0.0231934,-1.41083,-0.0466919,0.015564,0.0198364
21,0,0.0405884,0.0354004,-0.0250244,-2.96478,0.0393677,0.00976562,0.0195312,0.0177002,0.0549316,-1.2088,-0.0137329,0.0265503,0.0228882
21,1,0.0283813,0.00427246,0.022583,-2.85004,0.0253296,0.017395,0.0128174,0.0231934,0.0341797,-1.00494,-0.0265503,0.00762939,0.0238037
21,2,0.0415039,0.0357056,0.0247192,-1.71539,0.0872803,0.00823975,0.0180054,0.0177002,0.0344849,-0.386047,-0.0405884,0.0286865,-0.0106812
21,3,0.0292969,0.0390625,0.00518799,0.290527,0.0183105,0.0796509,0.0238037,0.03479,-0.0350952,0.0228882,-0.0350952,0.0308228,0.0128174
21,4,0.0201416,0.0280762,-0.000305176,2.341,-0.00183105,0.0128174,0.0317383,0.0137329,0.0201416,0.00823975,-0.0299072,0.0186157,0.0088501
22,0,0.0296021,-0.00610352,0.00427246,3.27972,-0.0262451,0.0280762,0.038147,0.0778198,0.0259399,-0.207825,-0.0299072,0.0195312,0.020752
22,1,0.050354,0.0271606,0.00671387,3.1601,0.00701904,0.0259399,0.0186157,0.0366211,0.0125122,0.489197,-0.0424194,0.0372314,0.0320435
22,2,0.0283813,0.000305176,0.00183105,3.10608,0.03479,0.0128174,0.0262451,0.039978,0.00854492,0.379333,-0.0302124,0.0393677,0.0238037
22,3,0.0183105,0.0167847,-0.00915527,3.0603,-0.000305176,0.0305176,0.00366211,0.0231934,0.00579834,0.711975,-0.0238037,0.0286865,0.0195312
22,4,0.0286865,0.0250244,-0.0158691,2.96997,0.0442505,-0.0234985,0.0250244,0.0219727,0.0213623,1.37329,-0.0271606,0.0482178,0.0238037
23,0,0.0317383,0.0189209,0.00549316,2.89703,0.0219727,0.0134277,0.0283813,0.0274658,0.00518799,0.553589,-0.0341797,0.0344849,0.0247192
23,1,0.0268555,0.0305176,-0.00366211,2.84821,-0.0299072,0.0231934,0.0253296,0.0308228,0.0363159,0.814514,-0.00244141,0.0323486,0.00701904
23,2,0.0357056,0.0482178,0.0231934,1.64368,0.0115967,0.0354004,0.0241089,0.0106812,0.090332,0.922241,-0.0274658,0.072937,0.0161743
23,3,0.0228882,0.038147,0.0204468,-0.265808,0.0228882,0.0152588,0.0189209,0.0247192,0.0198364,0.743103,-0.0250244,0.0274658,-0.0140381
23,4,0.0289917,0.0393677,0.0308228,-2.51312,0.0161743,0.00793457,0.0259399,0.0338745,0.0140381,0.83374,-0.0567627,0.0411987,0.0512695
24,0,0.0314331,0.0210571,0.015564,-3.18817,0.0115967,0.0247192,0.0344849,0.0280762,-0.00854492,0.775757,-0.0338745,0.0268555,0.0378418
24,1,0.010376,-0.00152588,0.0167847,-3.1958,-0.0543213,0.0198364,0.0131226,-0.0213623,0.0299072,0.731201,-0.0299072,0.0268555,0.0283813
24,2,0.0299072,0.0256348,0.0256348,-3.17444,0.032959,0.0128174,0.0305176,0.0296021,0.0100708,0.663452,-0.0363159,0.0350952,0.0390625
24,3,0.0863647,0.0271606,0.0161743,-3.06549,0.00976562,0.00976562,0.0509644,0.0366211,0.0262451,-0.127869,-0.0216675,0.03479,0.0317383
24,4,0.0354004,0.0421143,0.0137329,-3.05298,0.00274658,0.0299072,0.0137329,0.0283813,0.0167847,-0.113831,-0.00701904,0.045166,0.0683594
25,0,0.0387573,0.0506592,0.0195312,-2.9599,-0.0262451,0.00579834,-0.0405884,0.0250244,0.0448608,-0.26062,-0.0280762,0.022583,0.0283813
25,1,0.0500488,0.0393677,0.0219727,-2.90222,0.012207,-0.00152588,0.0180054,0.0256348,0.0357056,-0.190735,-0.0186157,0.0271606,0.0228882
25,2,0.0115967,0.03479,0.00427246,-2.85614,0.0195312,0.00946045,0.0708008,0.0177002,0.0378418,-0.124817,-0.0292969,0.0143433,-0.0250244
25,3,0.0247192,0.0323486,0.0317383,-2.7713,0.0149536,0.0134277,0.0195312,0.0256348,-0.00915527,-0.63324,-0.0585938,0.0143433,0.0131226
25,4,0.0445557,0.0473022,0.0286865,-2.70233,0.0167847,0.0231934,0.0164795,0.0289917,0.0143433,-0.410767,-0.0384521,0.0814819,0.0234985
26,0,0.015564,0.0234985,0.0314331,-2.61749,0.0128174,-0.0357056,0.0241089,0.0228882,0.0106812,-0.525513,-0.0305176,0.0430298,0.0100708
26,1,0.0515747,-0.012207,0.0253296,3.29071,0.00518799,0.0231934,0.00274658,0.0195312,0.0192261,-0.151672,-0.0299072,0.0317383,0.0247192
26,2,0.0296021,0.000915527,0.0790405,3.2959,0.0186157,-0.0558472,0.0210571,0.0161743,0.0250244,0.482178,-0.0317383,0.0228882,0.0283813
26,3,0.020752,-0.00457764,0.015564,3.31818,0.03479,0.0088501,-0.0253296,0.0247192,0.0274658,0.106201,-0.032959,0.0335693,0.0299072
26,4,0.0265503,0.0335693,0.0393677,3.32092,-0.00457764,-0.00793457,0.0360107,0.0189209,0.0360107,0.0982666,-0.0216675,0.00396729,0.0219727
27,0,0.0299072,0.0289917,0.0256348,3.30536,0.038147,0.0125122,0.000610352,0.00396729,0.0292969,0.260925,-0.0213623,0.0292969,0.0308228
27,1,0.0280762,0.0283813,0.0421143,3.30353,0.043335,0.00579834,0.0109863,0.0280762,0.00579834,0.593872,-0.0305176,0.0234985,0.0234985
27,2,0.0408936,0.0158691,0.0439453,1.95312,0.00274658,0.0170898,0.0112915,0.0296021,0.022583,1.34155,-0.0326538,0.0363159,0.0234985
27,3,0.0564575,0.0476074,0.0250244,0.260925,0.0344849,0.000915527,0.0186157,0.0234985,0.0289917,1.70837,-0.0396729,0.0384521,0.0231934
27,4,0.0204468,0.0143433,0.0192261,-1.77521,0.00518799,0.0222778,0.0167847,0.0131226,0.0314331,1.62323,-0.0390625,0.0390625,0.0299072
28,0,0.03479,0.0317383,0.0216675,-3.08929,0.0131226,0.00610352,-0.045166,0.00457764,0.0216675,1.47064,-0.0131226,0.0280762,0.0354004
28,1,0.0366211,-0.015564,0.0259399,-2.98645,0.0140381,-0.000610352,0.00305176,0.0115967,0.0405884,1.33484,-0.0265503,0.0775146,0.050354
28,2,0.045166,0.0631714,0.039978,-2.91992,0.0189209,-0.00183105,0.0115967,0.0216675,0.0354004,1.19263,0.0149536,0.0390625,0.0274658
28,3,-0.000915527,0.0448608,0.0305176,-2.86163,0.0143433,0.0234985,-0.0335693,0.0161743,0.0152588,1.04889,-0.0167847,0.0308228,-0.0186157
28,4,0.0219727,0.0311279,0.020752,-2.76215,-0.0137329,0.00579834,0.0219727,0.0201416,0.0180054,0.949097,-0.0320435,0.00854492,0.0296021
29,0,0.0317383,0.00488281,0.0549316,-2.68677,0.00671387,-0.027771,0.0280762,0.0201416,0.0244141,0.831909,-0.0341797,0.0369263,0.0445557
29,1,0.00213623,0.0366211,0.0384521,-2.60101,0.0134277,0.010376,0.00244141,0.0311279,0.0238037,0.752869,-0.0354004,0.0289917,0.0231934
29,2,0.0323486,0.0253296,0.0289917,-1.89453,-0.0332642,0.0241089,0.0100708,0.00732422,0.03479,0.674744,-0.03479,0.0354004,0.0189209
29,3,0.0283813,0.0354004,-0.00610352,-0.0521851,0.0302124,0.00732422,0.0183105,0.0119019,0.0140381,0.58136,-0.022583,0.0341797,0.0271606
29,4,0.00488281,0.0408936,0.032959,2.06085,0.0143433,0.0167847,-0.00457764,0.0283813,0.00823975,0.518188,-0.0305176,0.0421143,0.0238037
30,0,0.0204468,0.0289917,0.0198364,3.30933,0.0146484,0.0137329,0.0088501,0.015564,0.0213623,0.444031,-0.0253296,0.020752,0.027771
30,1,0.0231934,-0.0363159,0.0372314,3.31696,0.0796509,0.0131226,0.0152588,-0.0137329,0.0115967,0.375061,-0.0390625,0.0265503,0.0372314
30,2,0.0402832,0.0204468,0.0289917,3.32397,0.0247192,0.010376,0.0247192,0.0189209,0.0183105,0.328064,-0.0299072,0.0360107,0.0183105
30,3,0.0274658,0.0302124,0.0482178,3.31635,0.0262451,0.000610352,0.00518799,0.0204468,0.0164795,0.272217,-0.0250244,0.0375366,0.0167847
30,4,0.0274658,0.027771,0.0384521,3.30994,0.0518799,0.0140381,0.00274658,0.00671387,0.0311279,0.222473,-0.0363159,0.0305176,-0.00274658
31,0,0.0195312,0.0378418,0.0369263,3.31238,0.0457764,0.0244141,0.0164795,-0.0149536,0.0177002,0.206909,-0.0241089,0.0421143,0.0515747
31,1,0.0146484,0.0482178,0.0476074,3.18237,0.0167847,-0.00579834,-0.0341797,0.0119019,0.0244141,0.13031,-0.0354004,0.0466919,0.0949097
31,2,-0.0088501,0.0222778,0.0360107,2.20367,0.0326538,0.0115967,-0.000915527,0.0259399,0.0247192,0.105896,-0.0378418,0.0164795,0.0350952
31,3,-0.0143433,0.032959,0.0292969,0.384216,-0.0119019,0.0231934,0.0143433,0.022583,0.0244141,0.0802612,-0.0302124,0.0262451,0.0369263
31,4,0.0222778,0.0683594,0.0314331,-1.70624,0.00305176,0.03479,0.00213623,-0.00579834,0.0320435,0.0378418,-0.0622559,0.0219727,0.0476074
32,0,0.0186157,0.0506592,0.0323486,-3.13782,0.0366211,0.0195312,-0.00244141,0.0213623,0.0112915,0.0134277,-0.038147,0.0314331,0.0411987
32,1,0.0262451,0.0457764,0.0402832,-3.10883,0.0393677,0.0158691,-0.00610352,0.00823975,0.0222778,-0.03479,-0.0338745,0.0231934,0.0421143
32,2,0.0286865,0.0320435,0.0354004,-3.05176,-0.0140381,0.0100708,-0.00183105,0.0271606,0.0299072,-0.0259399,-0.0274658,0.03479,0.020752
32,3,0.027771,0.0402832,0.0332642,-3.0249,0.0631714,0.0140381,-0.0253296,0.00854492,0.0140381,-0.0939941,-0.0219727,0.0195312,0.0430298
32,4,0.0308228,0.0418091,0.0967407,-2.88849,0.0402832,0.0744629,0.00732422,0.0152588,0.0680542,-0.0592041,-0.0296021,0.0640869,0.038147
33,0,0.0222778,0.0289917,0.0436401,-2.82684,0.0152588,-0.0378418,0.0213623,0.00915527,-0.0375366,-0.0973511,-0.0250244,-0.0262451,0.0305176
33,1,0.0280762,0.0323486,0.0479126,-2.724,0.0341797,0.0219727,0.0137329,0.0109863,0.0646973,-0.11322,-0.0244141,0.0292969,0.0308228
33,2,0.0357056,0.0314331,0.0524902,-2.659,0.0161743,0.0750732,0.0119019,0.00793457,0.0491333,-0.135803,-0.0317383,0.0253296,0.0262451
33,3,0.0387573,0.0250244,0.0158691,-2.57782,0.00396729,0.012207,0.000305176,0.0167847,0.0180054,-0.124512,-0.0231934,0.0167847,0.0454712
33,4,0.032959,-0.00366211,0.0198364,-2.52411,0.0402832,0.00976562,0.0234985,0.0161743,0.0134277,-0.149536,-0.0308228,0.0204468,0.0146484
34,0,0.0344849,0.0289917,0.0418091,-2.45911,0.0137329,0.0317383,0.00152588,0.00640869,0.0210571,-0.120544,-0.0201416,0.0256348,0.0448608
34,1,0.0442505,0.020752,0.0180054,-2.4173,0.0393677,0.0369263,0.0192261,-0.00274658,0.0137329,-0.153198,0.0128174,0.0268555,0.0262451
34,2,-0.000305176,0.0280762,0.0344849,-2.40509,0.0344849,-0.00915527,0.00640869,0.00396729,0.0323486,-0.181274,-0.0567627,0.0161743,0.00427246
34,3,0.0250244,0.0344849,0.038147,3.3136,0.0234985,0.0204468,0.0164795,0.00610352,0.0308228,-0.158691,-0.0289917,0.0375366,0.0344849
34,4,0.0274658,-0.0262451,0.0463867,3.30109,0.057373,0.00762939,0.0244141,0.0219727,0.0210571,-0.177612,-0.0210571,0.0213623,0.0363159
35,0,0.0186157,0.00946045,-0.00732422,3.30597,0.0204468,0.0216675,0.0326538,0.0219727,0.0317383,-0.155029,-0.0259399,0.0305176,0.017395
35,1,-0.0375366,0.0115967,0.0650024,3.31421,0.00671387,0.0186157,0.00946045,0.0161743,0.00427246,-0.179749,0.010376,0.0466919,0.0396729
35,2,0.0344849,0.0106812,0.00152588,2.88269,0.0439453,0.0665283,0.00579834,0.00671387,0.0540161,-0.183716,-0.022583,-0.0186157,0.0350952
35,3,0.0189209,0.0216675,0.00610352,1.04614,0.0262451,0.0198364,-0.0534058,0.0143433,0.000305176,-0.163879,-0.0332642,0.0524902,0.0302124
35,4,0.0384521,0.0292969,0.0335693,-1.21887,0.0354004,0.00305176,0.0210571,-0.000305176,0.0201416,-0.179443,-0.00244141,0.0317383,0.0320435
36,0,0.020752,0.0302124,0.0228882,-2.7417,0.0476074,0.0357056,0.0259399,-0.00244141,0.0308228,-0.220337,-0.0317383,0.0274658,0.0457764
36,1,0.0424194,0.0219727,0.0112915,-2.67426,0.0286865,-0.000305176,0.0283813,0.0183105,0.0271606,-0.17395,-0.032959,0.0360107,0.0439453
36,2,0.0320435,0.0405884,0.0268555,-2.62146,0.0439453,0.0823975,0.0311279,-0.0125122,0.00701904,-0.173035,0.00671387,0.0231934,0.0198364
36,3,0.022583,0.0531006,0.0335693,-2.55951,0.0354004,0.027771,0.0186157,0.039978,0.0186157,-0.177612,-0.0201416,0.0344849,0.0332642
36,4,0.0152588,0.0552368,0.0317383,-2.49512,0.0509644,0.0238037,0.0311279,0.0131226,0.0204468,-0.18158,-0.0222778,0.0323486,0.027771
37,0,0.017395,0.015564,0.032959,-2.40173,-0.000915527,0.0170898,0.0213623,-0.0323486,0.0170898,-0.158997,-0.022583,0.0189209,0.0219727
37,1,0.0274658,0.0491333,0.0521851,-2.32269,0.0125122,0.0222778,0.0231934,0.0201416,0.00335693,-0.162964,-0.0311279,0.0204468,0.0167847
37,2,0.020752,-0.0219727,0.0366211,-1.84082,0.0424194,0.0311279,0.0180054,0.0106812,0.0219727,-0.164185,-0.0256348,-0.0378418,0.0350952
37,3,0.0357056,-0.00610352,0.0418091,-0.161743,0.0427246,0.0344849,0.0228882,0.00701904,0.0149536,-0.151978,-0.0213623,0.017395,0.0317383
37,4,0.0253296,-0.00427246,-0.027771,1.90796,0.0469971,-0.0170898,0.0289917,0.0088501,-0.0445557,-0.178528,-0.0286865,0.0888062,0.0311279
38,0,0.0149536,-0.00183105,0.0177002,3.30353,0.020752,0.0134277,0.0289917,0.0640869,0.03479,-0.153198,-0.0192261,0.0137329,0.0244141
38,1,0.0149536,-0.0112915,0.0286865,3.30566,0.0335693,0.010376,0.00183105,0.00701904,0.0125122,-0.165405,-0.00427246,0.0125122,0.0704956
38,2,0.0341797,0.0286865,0.032959,3.28857,0.0415039,0.0396729,0.0372314,0.0268555,0.00366211,-0.162659,-0.022583,0.0253296,0.0320435
38,3,0.00274658,0.0302124,0.0338745,3.32001,0.00701904,0.00823975,0.0210571,0.043335,0.0259399,-0.158691,-0.0106812,0.0210571,0.0189209
38,4,0.027771,0.050354,0.0106812,3.3194,0.0500488,0.0378418,0.0234985,-0.0131226,0.0134277,-0.127258,-0.0234985,0.0183105,0.0350952
39,0,0.0204468,0.0588989,0.0253296,3.32184,0.0350952,0.0320435,0.0146484,-0.0256348,0.0177002,-0.151062,0.0109863,0.032959,0.0198364
39,1,0.0228882,0.0384521,0.0421143,3.30627,0.0308228,0.0299072,0.0131226,0.0180054,0.0744629,-0.147705,-0.0170898,-0.0234985,0.0354004
39,2,0.0238037,0.0250244,0.0402832,2.8775,0.0378418,0.0308228,0.0234985,0.017395,0.00640869,-0.133057,-0.0128174,0.012207,0.0430298
39,3,0.00549316,0.0335693,0.0289917,1.03912,0.0735474,0.0204468,0.0332642,0.0109863,0.0088501,-0.141602,-0.0341797,0.0115967,0.0283813
39,4,0.0128174,0.0387573,0.0411987,-1.17798,0.0354004,0.00213623,0.0326538,0.0115967,0.010376,-0.142517,-0.0241089,0.017395,-0.0244141
40,0,0.022583,0.010376,0.0149536,-2.96936,0.0485229,0.0088501,-0.00976562,0.0280762,0.00854492,-0.12146,-0.0250244,0.0228882,0.0231934
40,1,0.0296021,0.0228882,0.0296021,-2.96112,0.0274658,0.0311279,0.0439453,-0.000610352,0.0204468,-0.112915,-0.0106812,0.00213623,0.0363159
40,2,0.0210571,0.0302124,0.0567627,-2.87506,0.0650024,0.0732422,0.0323486,0.017395,0.0894165,-0.125122,-0.00701904,0.050354,0.0195312
40,3,0.0137329,0.090332,0.038147,-2.80182,0.0280762,0.0524902,0.0341797,0.020752,0.00701904,-0.113525,-0.0189209,0.0170898,0.0219727
40,4,-0.00274658,0.0396729,0.0341797,-2.73682,0.0354004,0.012207,0.0311279,0.0320435,0.0219727,-0.133362,-0.0228882,0.0253296,0.0460815
41,0,0.0128174,0.0286865,0.0161743,-2.66418,0.0341797,0.0268555,0.0128174,0.0164795,-0.0238037,-0.116577,-0.022583,0.03479,-0.00671387
41,1,-0.0164795,0.0305176,0.0265503,-2.59033,0.0296021,0.0201416,0.0274658,0.00640869,0.00335693,-0.0805664,-0.0592041,0.038147,0.00640869
41,2,-0.00671387,0.0238037,0.0234985,-2.0816,0.0143433,0.0341797,0.0228882,0.0170898,0.00701904,-0.124512,-0.0494385,0.0256348,0.038147
41,3,0.0115967,0.00366211,0.0119019,-1.41022,-0.0088501,0.0375366,0.0222778,0.0286865,0.0256348,-0.110474,-0.0198364,0.0183105,0.020752
41,4,0.0131226,0.0408936,0.0219727,-1.37207,0.0170898,0.0289917,0.0305176,0.0750732,0.0161743,-0.102539,-0.0250244,0.0292969,0.038147
42,0,0.00518799,-0.0408936,0.0158691,-1.36688,0.0866699,0.0393677,0.015564,0.0219727,0.00457764,-0.107422,-0.0250244,0.0228882,0.0253296
42,1,0.0592041,-0.0012207,0.0152588,-1.30157,0.0234985,0.0387573,0.039978,0.00976562,0.0119019,-0.0952148,-0.0595093,0.0177002,0.0289917
42,2,0.0164795,0.00152588,0.085144,-1.28418,0.0088501,0.0372314,0.0408936,0.0289917,0.0134277,-0.108643,-0.0167847,0.0170898,0.0323486
42,3,0.0256348,0.00976562,0.022583,-1.24298,0.0454712,0.0323486,0.00854492,0.0183105,0.0305176,-0.0509644,-0.0247192,0.0274658,0.0308228
42,4,0.017395,0.0231934,0.0180054,-1.22955,0.0283813,0.0588989,0.0445557,0.0262451,0.0302124,-0.0967407,-0.017395,0.012207,0.017395
43,0,0.00762939,-0.00396729,0.0161743,3.284,0.000915527,0.0463867,0.0341797,-0.00732422,0.017395,-0.0772095,-0.0204468,0.0201416,0.0411987
43,1,0.00762939,0.0158691,0.0115967,3.33435,0.0134277,0.0286865,0.0311279,0.0216675,0.00610352,-0.0842285,-0.0271606,0.0170898,0.0341797
43,2,0.0234985,0.0421143,0.0109863,3.3136,0.0332642,0.0268555,0.0378418,0.022583,0.00488281,-0.0912476,-0.0222778,0.0186157,0.0354004
43,3,0.00396729,0.00793457,0.0201416,1.67175,0.0125122,0.0204468,0.0299072,0.0125122,-0.0274658,-0.0820923,-0.0213623,0.0732422,0.0332642
43,4,0.0259399,0.027771,0.0244141,-0.549011,0.0405884,0.0299072,0.0305176,0.0119019,0.00488281,-0.0714111,-0.0219727,0.0216675,0.0332642
44,0,0.0195312,0.015564,0.00732422,-2.43713,0.0238037,0.0756836,0.0372314,0.0128174,-0.0296021,-0.0732422,-0.0177002,0.020752,0.0204468
44,1,0.0335693,0.0372314,0.0598145,-2.50793,0.0280762,0.0338745,0.0259399,0.022583,0.0213623,-0.0595093,-0.0201416,0.0140381,0.050354
44,2,0.00946045,0.0234985,0.0454712,-2.43805,0.0222778,0.0790405,0.0259399,0.0238037,0.0195312,-0.0717163,-0.00946045,0.0753784,0.0344849
44,3,0.00640869,0.0650024,0.0335693,-2.38708,0.0268555,0.0366211,0.0427246,0.0161743,0,-0.102844,-0.0158691,0.0241089,0.0570679
44,4,0.0219727,0.027771,0.0271606,-2.3349,0.0241089,0.0384521,0.0387573,0.0186157,0.00518799,-0.0473022,-0.010376,0.00488281,0.0314331
45,0,0.00457764,0.0289917,0.0177002,-2.23999,0.0271606,0.0796509,0.0323486,0.032959,-0.00244141,-0.0570679,-0.0216675,0.0167847,0.0283813
45,1,0.0238037,0.0811768,0.0360107,-2.17346,-0.0317383,0.043335,0.0360107,0.0308228,0.0131226,-0.0460815,-0.0271606,0.0219727,0.0253296
45,2,0.0247192,0.0308228,-0.015564,-1.97754,0.00305176,0.0115967,0.00518799,0.0274658,0.0738525,-0.0476074,-0.0198364,0.0119019,0.022583
45,3,0.0128174,0.010376,0.0302124,-0.323792,0.0283813,0.0448608,0.00305176,0.0262451,0.00854492,-0.045166,-0.0115967,0.010376,0.0137329
45,4,0.0164795,0.0131226,-0.00549316,1.90125,0.0619507,0.0546265,0.0393677,0.0527954,-0.00701904,-0.0628662,0.0183105,0.0354004,0.015564
46,0,-0.0305176,0.0201416,0.0137329,3.31177,0.0143433,0.03479,0.0387573,0.0125122,0.0137329,-0.0473022,-0.0186157,0.0186157,0.0338745
46,1,0.0640869,0.0204468,0.0268555,3.3313,0.0198364,0.0372314,0.0311279,0.0308228,0.0216675,-0.0405884,-0.0231934,0.0305176,0.0244141
46,2,0.0292969,0.017395,-0.000305176,3.31848,0.0186157,0.0338745,0.0427246,0.0305176,0.0146484,-0.0384521,-0.0137329,0.0140381,0.0332642
46,3,0.0125122,0.00518799,0.0115967,3.31818,0.00518799,0.039978,0.022583,0.0231934,0.0213623,-0.0341797,-0.0177002,0.0415039,0.0350952
46,4,0.0146484,0.012207,-0.0375366,3.32367,-0.00152588,0.0424194,0.0460815,0.0314331,0.0152588,-0.0369263,-0.00427246,0.0152588,0.032959
47,0,0.0265503,0.0219727,-0.00183105,3.31818,-0.022583,0.0469971,0.0491333,0.022583,0.0363159,-0.0653076,-0.020752,0.0216675,0.0119019
47,1,0.0140381,0.0415039,0.00640869,3.30841,0.0262451,0.0411987,0.0424194,0.012207,0.0198364,-0.0457764,-0.0289917,0.015564,0.032959
47,2,0.00732422,0.0326538,0.010376,3.15674,0.0256348,0.038147,0.0411987,0.00793457,0.0137329,-0.0296021,-0.0210571,0.0146484,0.0262451
47,3,0.0146484,0.0234985,0.0265503,1.44501,0.0354004,0.039978,0.0344849,-0.0241089,0.0292969,-0.0933838,-0.0274658,0.0259399,0.0378418
47,4,0.0158691,0.0213623,0.017395,-0.577393,-0.0305176,0.0332642,0.0183105,0.0524902,0.0170898,-0.810547,-0.0146484,0.0259399,0.0369263
48,0,0.0012207,0.00305176,0.0106812,-2.4884,0.0262451,0.0430298,0.0335693,0.0268555,0.010376,-0.974426,-0.0271606,0.0253296,0.032959
48,1,0.0286865,0.0289917,0.012207,-2.86835,0.0192261,0.0500488,0.0350952,0.0320435,0.0128174,-0.610657,-0.0164795,-0.00152588,0.0198364
48,2,0.0231934,0.010376,-0.00335693,-2.80579,0.0344849,0.0744629,0.0161743,0.0378418,0.0231934,-1.41235,-0.0253296,0.00732422,0.0201416
48,3,0.0247192,-0.0402832,0.0180054,-2.73041,0.0564575,0.0424194,0.0430298,0.0521851,0.0210571,-0.796509,-0.0161743,0.032959,0.0195312
48,4,-0.0491333,-0.00335693,0.0128174,-2.7066,0.0430298,0.0332642,0.0784302,0.027771,0.0198364,-0.530701,-0.0357056,0.0280762,0.00610352
49,0,-0.0204468,-0.0216675,0.0143433,-2.62665,0.0384521,0.0393677,0.0408936,0.0222778,-0.00976562,-0.766602,-0.0192261,0.015564,0.0161743
49,1,0.0231934,-0.000305176,0.00732422,-2.50977,0.0219727,0.0457764,0.0634766,0.0219727,0.0231934,0.316467,-0.0375366,0.0167847,0.0164795
49,2,0.0186157,0.0143433,-0.00457764,-2.35413,0.010376,0.0482178,0.0387573,0.0482178,0.0204468,0.498657,-0.0479126,0.00610352,0.0283813
49,3,0.0161743,-0.00488281,0.00549316,-0.899963,0.045166,0.038147,0.0247192,0.067749,0.020752,-0.00579834,-0.0177002,0.0100708,0.0152588
49,4,0.00579834,0.00854492,0.00976562,1.20331,0.00396729,0.0341797,0.0509644,0.0167847,0.0161743,-0.392761,-0.022583,0.0183105,0.0344849
50,0,0.0299072,0.0259399,0.0100708,3.20496,0.0317383,0.0482178,0.0210571,0.0222778,0.0164795,0.299683,-0.0311279,0.0228882,0.00488281
50,1,0.0186157,0.0424194,0.0186157,3.30872,0.0186157,0.0253296,0.0088501,0.0164795,0.0238037,0.567017,-0.0198364,0.0213623,0.0238037
50,2,0.0125122,0.0418091,0.0115967,3.30811,0.0201416,0.0341797,0.0320435,0.0259399,0.0201416,0.379333,-0.0112915,0.0256348,0.015564
50,3,0.022583,0.0665283,0.0338745,3.29987,0.0305176,0.0189209,0.0524902,0.0363159,0.0857544,-0.296021,-0.0219727,0.050354,0.0186157
50,4,0.0372314,0.0210571,0.0146484,3.30566,0.0378418,0.000305176,0.0332642,0.0338745,0.0250244,-0.139465,-0.0286865,-0.0137329,0.0280762
51,0,0.00793457,-0.0219727,0.0180054,3.29773,-0.0012207,0.0463867,0.0488281,0.0222778,0.0823975,0.52002,-0.0299072,-0.0195312,-0.00366211
51,1,0.0238037,-0.00274658,0.0369263,3.3255,0.0408936,0.0357056,-0.00732422,0.0308228,0.0231934,0.557556,-0.022583,0.0112915,0.0588989
51,2,0.0189209,-0.00701904,-0.00549316,3.04993,0.0546265,0.0582886,0.0387573,0.0424194,0.0479126,0.211792,-0.0183105,0.0183105,0.0137329
51,3,0.00793457,-0.00488281,0.012207,1.54297,0.022583,0.0402832,-0.0012207,0.0448608,0.0192261,0.162354,-0.0161743,0.0161743,0.0418091
51,4,-0.0457764,0.00457764,0.0100708,-0.463867,0.0280762,0.045166,0.0280762,0.0384521,0.00549316,0.21759,-0.0164795,0.00305176,0.0125122
52,0,0.015564,0.0115967,0.022583,-2.53479,0.0506592,0.0228882,0.0393677,0.00762939,0.0271606,-0.188599,-0.00610352,0.0131226,0.00640869
52,1,0.038147,0.0256348,-0.000915527,-3.08502,0.00762939,0.0396729,0.0198364,0.0280762,0.0131226,0.396118,-0.0149536,-0.000610352,0.0250244
52,2,0.0305176,0.0616455,-0.00549316,-3.00293,0.00610352,0.0323486,0.0338745,0.0631714,0.0320435,0.0796509,0.00274658,0.010376,0.0125122
52,3,0.010376,0.0622559,0.0167847,-2.93945,0.0170898,0.0195312,0.0296021,0.000305176,-0.00793457,0.422668,-0.0219727,-0.015564,0.0149536
52,4,0.0344849,0.0476074,0.0189209,-2.86041,0.0280762,0.00274658,0.0177002,0.0338745,0.0344849,0.384216,-0.057373,0.00732422,0.00732422
53,0,0.0262451,0.0332642,0.0708008,-2.78748,0.0201416,0.0469971,0.0274658,0.0332642,0.0253296,0.283813,-0.0296021,0.0164795,0.010376
53,1,0.00396729,0.0299072,0.00152588,-2.70325,0.000610352,0.0323486,0.0274658,0.0216675,0.0234985,0.333557,-0.0109863,0.00671387,0.0714111
53,2,0.0149536,0.0189209,0.0170898,-2.60193,0.0466919,0.0311279,0.00335693,0.0192261,0.027771,0.358276,-0.0299072,0.00549316,-0.00396729
53,3,0.0140381,0.00823975,0.0177002,-1.43616,0.00366211,0.0296021,-0.00396729,0.0332642,0.0488281,0.217285,-0.0177002,0.0238037,-0.0292969
53,4,0.0552368,0.00183105,0.0241089,0.753479,0.010376,0.0390625,0.0686646,0.0656128,0.0271606,0.25116,-0.0588989,0.0112915,0.0448608
54,0,0.0143433,0.00915527,0.0100708,2.81799,0.0280762,0.032959,0.015564,0.0357056,-0.0167847,0.1828,-0.0192261,-0.0180054,0.0308228
54,1,0.0244141,-0.00518799,0.0213623,3.3252,0.0256348,0.0360107,0.0323486,0.0418091,0.0012207,0.180054,-0.0137329,0.00488281,0.0088501
54,2,0.0543213,0.00396729,0.0616455,3.28857,0.0213623,0.0369263,0.0411987,0.0570679,0.0408936,0.143127,-0.0286865,0.0088501,0.0112915
54,3,0.0317383,-0.00488281,0.022583,3.30139,0.0241089,0.0189209,0.0299072,0.0314331,0.0317383,0.166321,-0.0140381,0.015564,0.0366211
54,4,0.0247192,0.0152588,0.0247192,3.30231,-0.0189209,0.0112915,0.0384521,0.0424194,0.0363159,0.0787354,-0.0253296,-0.00152588,0.0125122
55,0,0.0167847,-0.00946045,0.0180054,3.30444,0.0497437,0.032959,0.038147,0.0302124,0.0360107,0.150757,-0.0424194,0.00335693,0.0289917
55,1,0.0146484,0.0088501,0.0384521,3.25409,-0.020752,0.0341797,0.0299072,0.03479,0.0286865,0.138855,-0.0256348,0.0314331,0.0088501
55,2,0.0210571,-0.0109863,0.0323486,3.06335,-0.00427246,-0.00671387,0.0256348,0.0427246,-0.0164795,0.136108,-0.0216675,-0.00518799,0.0213623
55,3,0.0234985,0.0213623,0.0149536,1.73706,0.0326538,0.0299072,0.017395,0.0997925,0.0326538,0.14801,-0.0164795,-0.00579834,0.00396729
55,4,0.0231934,0.03479,-0.000610352,-0.36438,0.0198364,0.0689697,0.0177002,0.038147,0.032959,0.062561,-0.00793457,0.0012207,0.0189209
56,0,0.0192261,0.027771,0.0158691,-2.42615,0.0088501,0.0201416,0.0820923,0.0476074,0.0314331,0.0424194,-0.0286865,0.0088501,0.0167847
56,1,0.0332642,0.0238037,0.0231934,-3.1897,0.0238037,0.0256348,0.0378418,0.0268555,0.0253296,0.0387573,-0.0219727,0.0210571,0.0210571
56,2,0.0204468,0.0259399,0.0192261,-3.12012,0.0439453,0.0494385,0.0366211,-0.0366211,0.0543213,0.06073,-0.0170898,0.00915527,0.0137329
56,3,0.00549316,0.0299072,0.0186157,-3.04016,0.0189209,0.0280762,0.0363159,0.0308228,0.0411987,0.0674438,0.00152588,0.00701904,0.0125122
56,4,0.0125122,0.0869751,0.0198364,-2.9657,0.0164795,0.0387573,0.0387573,0.0320435,0.0457764,0.00488281,-0.0128174,0.017395,0.0137329
57,0,0.00762939,0.0152588,0.0363159,-2.89429,0.0250244,0.0314331,0.00946045,0.0286865,0.0247192,-0.250854,-0.027771,0.00640869,0.022583
57,1,0.038147,0.0167847,0.0308228,-2.79816,0.015564,-0.0192261,0.0210571,0.0158691,0.0112915,0.0332642,-0.00396729,0.00793457,0.0177002
57,2,0.020752,0.0128174,0.0387573,-2.7063,0.0201416,-0.038147,0.0354004,0.0201416,0.0396729,0.0762939,-0.0274658,-0.00396729,0.0222778
57,3,0.0204468,0.0238037,-0.0274658,-1.56158,0.0271606,-0.00335693,0.0283813,0.0210571,0.0259399,0.0509644,-0.0234985,0.0430298,0.0125122
57,4,0.0210571,0.0558472,0.00152588,0.352173,0.0302124,0.0369263,0.0363159,0.0167847,0.0280762,0.0854492,-0.0286865,0.00366211,0.00915527
58,0,0.0177002,0.0393677,-0.065918,2.49725,0.0231934,-0.0131226,0.022583,0.0265503,0.0143433,0.0305176,0.00274658,-0.00427246,0.0369263
58,1,0.0198364,-0.022583,0.00244141,3.29834,-0.0183105,0.0119019,0.0152588,0.0238037,0.0177002,0.0192261,-0.0231934,-0.0012207,0.0125122
58,2,0.00640869,0.0302124,0.0137329,3.31757,0.0164795,0.0369263,0.0143433,0.0195312,0.0274658,0.0561523,-0.0280762,0.0234985,0.0274658
58,3,0.032959,0.0100708,0.0234985,3.29132,0.0216675,0.0128174,0.0149536,0.0244141,0.0268555,0.055542,-0.0326538,0.0311279,0.0296021
58,4,0.0247192,0.0152588,0.0201416,3.30048,0.0305176,0.00762939,0.00976562,0.0457764,0.017395,-0.00274658,-0.0164795,0.00671387,0.00427246
59,0,0.0219727,0.0109863,0.0213623,3.29071,0.0189209,0.0119019,0.0271606,0.0332642,0.0421143,-0.000610352,-0.00335693,0.00152588,-0.0204468
59,1,0.0192261,0.0250244,0.0271606,3.19214,0.0186157,0.0344849,0.0332642,0.0183105,0.0259399,0.0320435,-0.0149536,0.0180054,-0.0143433
59,2,0.0088501,0.0180054,0.00946045,3.06091,0.0161743,0.00946045,0.0326538,0.0360107,0.0256348,0.0445557,0.00335693,0.0115967,0.0100708
59,3,0.0167847,0.0222778,0.0164795,1.716,0.0131226,0.00457764,0.0445557,0.0259399,0.0396729,0.0610352,-0.0210571,0.0128174,0.0198364
59,4,-0.0326538,0.0167847,0.0146484,-0.19165,0.0238037,0.00549316,0.0610352,0.0271606,0.0360107,0.0549316,-0.0228882,0.0204468,0.00213623
60,0,0.00518799,0.0292969,0.022583,-2.26685,-0.00640869,0.032959,0.0244141,0.0354004,0.0280762,0.0619507,-0.0390625,-0.0231934,0.010376
60,1,0.0238037,0.017395,0.0140381,-3.19275,0.0262451,0.0317383,0.0308228,0.0143433,0.0286865,0.0317383,-0.0387573,0.00518799,-0.0250244
60,2,0.0314331,0.0192261,0.00305176,-3.19427,0.0149536,0.0384521,0.0210571,0.0369263,0.0271606,0.0271606,-0.0201416,0.00335693,0.0119019
60,3,0.0201416,0.00305176,0.0088501,-3.18573,0.022583,0.0512695,0.0753784,0.0476074,0.0430298,0.0387573,0.00366211,0.0289917,0.0137329
60,4,0.0189209,0.0289917,0.0192261,-3.0835,0.0219727,0.0518799,0.0704956,0.00457764,0.0485229,-0.0186157,-0.0326538,0.0170898,-0.00640869
61,0,0.0326538,0.0231934,0.0143433,-2.96265,0.0177002,0.000305176,0.0161743,-0.0311279,0.0326538,0.00640869,-0.0595093,0.0192261,0.0259399
61,1,0.0170898,0.00549316,0.0524902,-2.90314,0.0299072,0.010376,0.027771,0.00152588,0.0219727,0.0247192,-0.0210571,0.0183105,0.00335693
61,2,0.0271606,0.0259399,0.0186157,-2.77252,0.0201416,0.0259399,0.0134277,0.0338745,0.0363159,0.0296021,-0.0320435,0.0219727,-0.00793457
61,3,0.0244141,0.0289917,0.0259399,-1.91162,0.0201416,-0.0140381,0.0204468,0.0363159,0.0418091,-0.370789,-0.0302124,0.108032,0.017395
61,4,0.0286865,0.00579834,0.0198364,-0.0921631,0.0201416,0.0418091,0.0500488,0.0350952,-0.00823975,-0.305786,-0.0250244,0.0189209,0.0280762
62,0,0.0387573,0.000915527,0.00946045,2.27966,0.0140381,0.0088501,0.0286865,0.0183105,0.0262451,-0.0799561,-0.0402832,0.0219727,0.0228882
62,1,0.015564,0.00427246,0.0204468,3.302,0.0253296,0.0308228,0.0323486,0.0241089,0.0289917,-0.0564575,-0.0292969,0.0341797,0.027771
62,2,0.0210571,0.00274658,0.0152588,3.29315,0.0335693,0.00579834,0.0137329,0.0128174,0.022583,0.12146,-0.0222778,0.0341797,0.0296021
62,3,0.0344849,0.00671387,0.0210571,3.2962,0.0244141,0.0292969,0.0378418,0.0238037,0.0430298,0.154419,-0.0283813,0.0234985,0.0283813
62,4,0.0296021,0.00762939,0.0201416,3.2843,0.112915,0.0292969,0.0100708,0.0650024,0.045166,0.12146,-0.0335693,0.0299072,0.03479
63,0,0.0125122,0.0115967,0.0219727,3.26294,0.0186157,0.00549316,0.0115967,0.0109863,0.0427246,0.121765,-0.0262451,0.0234985,0.0314331
63,1,0.0186157,-0.00213623,0.00274658,3.15216,0.00915527,0.0146484,0.0375366,0.0375366,0.0332642,0.107727,-0.0250244,0.03479,0.0469971
63,2,-0.00946045,0.0228882,0.00640869,3.013,0.0219727,0.0088501,0.0213623,0.00823975,0.0253296,0.0881958,-0.0253296,0.0238037,-0.00213623
63,3,0.00183105,-0.00335693,0.00305176,1.83868,0.0216675,0.0308228,0.0616455,0.0408936,0.0482178,0.111084,-0.0366211,0.0363159,0.00946045
63,4,0.0180054,0.000915527,0.0289917,0.0262451,0.0183105,-0.00762939,0.00854492,0.0262451,0.0320435,0.105286,-0.0265503,0.0213623,0.0140381
64,0,0.0231934,0.0241089,0.0256348,-2.03308,0.012207,0.0222778,0.0286865,0.0143433,0.0396729,-0.0531006,-0.032959,0.0323486,0.0253296
64,1,0.0283813,0.0561523,0.0167847,-3.2074,0.0387573,0.0183105,0.0387573,0.0283813,0.0241089,0.0744629,-0.0378418,0.0463867,0.0088501
64,2,0.0192261,0.0476074,0.032959,-3.20282,0.0177002,0.071106,0.0131226,0.0158691,-0.0140381,-0.123291,-0.0360107,0.0170898,0.0369263
64,3,0.0296021,0.0280762,0.0152588,-3.16193,0.0454712,0.0164795,0.0265503,0.0335693,0.032959,0.150757,-0.0305176,0.0283813,0.0335693
64,4,0.0393677,0.0756836,0.0152588,-3.08899,0.022583,0.0286865,0.0183105,0.0234985,0.0320435,0.153503,-0.0292969,0.0268555,0.0128174
65,0,0.0393677,0.0427246,0.0302124,-3.01758,0.0161743,0.0183105,0.0292969,0.0305176,0.0143433,-0.121765,-0.0396729,0.017395,0.00976562
65,1,0.057373,0.0341797,-0.000915527,-2.93335,0.0247192,-0.00610352,0.00427246,0.0323486,0.032959,-0.158997,-0.0466919,0.0195312,0.0210571
65,2,0.0274658,0.0640869,0.020752,-2.8183,0.0326538,0.0387573,0.0241089,-0.0384521,0.032959,-0.250244,-0.0283813,0.0253296,0.0408936
65,3,0.0125122,0.0338745,0.0137329,-1.9043,0.00305176,0.00946045,0.0115967,0.0238037,0.0305176,0.0756836,-0.0360107,0.0491333,0.0537109
65,4,0.03479,-0.0119019,0.0167847,-0.0637817,0.0296021,0.0115967,0.0210571,0.0213623,0.0250244,0.131836,-0.0216675,0.0219727,0.0143433
66,0,0.017395,0.012207,0,2.0871,0.0222778,0.00976562,0.0430298,0.0158691,0.0366211,0.0857544,-0.0241089,0.0674438,0.00518799
66,1,0.0274658,0.00579834,0.0152588,3.30383,0.00610352,0.0180054,0.00823975,-0.00366211,0.0302124,0.0125122,-0.0341797,0.0332642,0.022583
66,2,0.0378418,0.00640869,0.0280762,3.28705,0.0180054,0.0210571,0.0283813,0.0390625,0.0292969,0.0961304,-0.0296021,0.0189209,0.0238037
66,3,0.0408936,0.0131226,0.0204468,3.3606,0.0268555,0.0204468,0.00335693,0.0268555,0.0357056,0.107727,-0.0271606,0.0244141,0.0119019
66,4,0.020752,-0.000610352,0.0305176,3.30231,0.0280762,0.0186157,0.0308228,0.0314331,0.0213623,0.0579834,-0.0369263,0.0457764,-0.0109863
67,0,0.0610352,-0.00823975,0.0274658,3.23029,0.0201416,-0.0106812,0,0.0393677,-0.00793457,0.050354,0.0161743,0.0390625,0.0363159
67,1,0.0268555,0.0170898,0.0164795,3.14026,0.0299072,-0.0125122,0.0341797,0.0393677,0.0363159,0.00854492,-0.0216675,0.027771,0.0213623
67,2,0.0219727,0.0360107,0.0610352,3.00781,0.020752,0.015564,0.0344849,0.0302124,0.0357056,-0.0106812,-0.039978,0.0390625,0.0198364
67,3,0.0323486,0.0384521,0.022583,2.19421,0.015564,0.0201416,0.017395,0.0372314,0.0314331,0.017395,-0.065918,0.0421143,0.0317383
67,4,0.0396729,0.0354004,0.010376,0.409241,0.0234985,0.0463867,0.0292969,0.0198364,0.0341797,0.00946045,-0.0396729,0.0366211,0.0796509
68,0,0.00854492,0.00701904,0.0170898,-1.82007,0.0244141,0.0115967,0.0408936,0.0299072,0.0335693,0.0012207,-0.0372314,0.022583,0.039978
68,1,0.0219727,0.0283813,0.0308228,-3.18481,0.022583,-0.0234985,0.0271606,0.00793457,0.0704956,0.0704956,-0.0302124,0.0836182,0.0164795
68,2,0.0396729,0.0167847,0.012207,-3.18909,0.0579834,0.0338745,0.0292969,0.0393677,0.0311279,0.143127,-0.057373,0.0369263,0.0302124
68,3,0.0335693,0.0790405,0.0170898,-3.18848,0.0186157,-0.00244141,0.0335693,0.0198364,0.0442505,0.134888,-0.0372314,0.0860596,0.0259399
68,4,-0.015564,0.0552368,0.0302124,-3.11157,0.0180054,0.0378418,0.0323486,0.0128174,0.0405884,0.126343,-0.0180054,0.0357056,0.0421143
69,0,0.022583,0.0473022,0.0271606,-3.05603,0.0195312,0.022583,0.0289917,0.022583,0.0476074,0.0915527,-0.0244141,0.0662231,0.00701904
69,1,0.017395,0.0192261,-0.0125122,-2.98035,0.0366211,0.0274658,0.00640869,0.0308228,0.0387573,0.0820923,-0.0387573,0.0427246,0.0234985
69,2,0.0488281,0.0161743,0.0292969,-2.8186,0.0152588,-0.00457764,-0.0540161,0.032959,0.0265503,0.0924683,-0.0369263,0.0369263,0.0296021
69,3,0.0366211,0.0354004,0.0439453,-2.73743,0.0271606,0.0445557,0.0216675,0.0201416,0.012207,0.0762939,-0.0765991,0.0369263,0.0299072
69,4,0.0439453,0.0558472,-0.0128174,-2.67914,0.0424194,0.0958252,0.0292969,0.03479,-0.0335693,0.0689697,-0.0448608,0.0857544,0.0332642
70,0,0.0183105,0.0442505,0.0250244,-2.62939,0.00213623,0.03479,0.0231934,-0.00579834,0.0167847,0.0650024,-0.00610352,0.0271606,0.0405884
70,1,0.032959,-0.00427246,0.0219727,-2.55463,0.0161743,0.0280762,0.0213623,0.0253296,-0.00579834,0.0521851,-0.0305176,0.0286865,0.0314331
70,2,0.0613403,0.0320435,0.0314331,-2.4942,0.0143433,0.0012207,0.0119019,-0.00305176,0.0125122,0.0753784,-0.0488281,0.03479,0.027771
70,3,0.0256348,0.039978,0.0289917,-2.42889,0.0238037,0.0274658,0.0372314,0.0112915,0.0109863,0.0543213,-0.0491333,0.03479,0.0402832
70,4,0.0308228,0.0146484,0.0231934,-2.36938,0.0109863,0.0210571,0.0222778,0.0186157,0.0338745,0.0454712,-0.0253296,0.0411987,-0.0317383
71,0,0.0192261,0.0326538,0.0149536,-2.31567,0.0363159,0.010376,0.00488281,0.0152588,0.00915527,0.0473022,-0.0375366,0.0405884,0.0152588
71,1,0.0344849,0.0283813,0.0134277,-2.29858,0.0192261,0.0250244,-0.0616455,0.0167847,0.00762939,-0.0286865,-0.0369263,0.0360107,0.0491333
71,2,0.0326538,-0.0119019,0.0305176,-2.22595,0.00671387,-0.0106812,0.00701904,0.0177002,0.022583,0.0167847,-0.0534058,0.0360107,0.045166
71,3,0.0350952,-0.00671387,0.0250244,-2.17316,0.0177002,-0.0268555,0.0259399,0.0442505,-0.0234985,0.0216675,-0.0360107,-0.012207,0.0271606
71,4,0.0363159,0.010376,0.0311279,-2.1286,0.0109863,0.0167847,0.0149536,0.0109863,0.0088501,0.0491333,-0.0363159,0.0244141,0.0588989
72,0,0.0439453,0.0247192,0.0765991,-2.06787,0.00457764,0.0387573,0.00701904,0.0201416,0.0271606,0.0192261,-0.0326538,0.0366211,0.0216675
72,1,0.0231934,0.0177002,0.0283813,-2.02393,0.0146484,0.0259399,0.0177002,0.0106812,0.0213623,-0.0115967,-0.0460815,0.0616455,0.0357056
72,2,0.0360107,-0.0482178,0.0311279,-2.08588,0.0146484,0.015564,0.0320435,0.0088501,0.0332642,-0.0146484,-0.0369263,0.039978,0.0482178
72,3,0.0445557,0.00640869,0.0280762,-2.03003,0.0012207,0.0213623,0.0109863,0.0811768,0.0198364,0.0177002,-0.0698853,0.0143433,0.0341797
72,4,0.0253296,0.0698853,0.0396729,-1.99615,-0.0088501,0.017395,0.0292969,0.0149536,0.0161743,0.0100708,-0.0311279,0.0375366,0.0408936
73,0,0.0402832,0.00610352,0.0378418,-1.93878,0.0149536,0.032959,0.0289917,0.00793457,0.0296021,-0.0180054,-0.0357056,0.0234985,0.0250244
73,1,0.0393677,0.0848389,0.0588989,-1.9046,0.0610352,-0.0320435,0.00793457,-0.0421143,0.0299072,0.0088501,-0.0320435,0.0320435,0.0408936
73,2,0.0527954,0.0531006,0.0396729,-1.82434,0.012207,0.00305176,0.0180054,0.0283813,0.0695801,-0.0332642,-0.045166,0.0320435,0.0405884
73,3,0.0308228,0.0378418,0.0430298,-1.3678,0.0201416,0.00549316,0.0143433,0.00152588,0.0170898,-0.0912476,-0.017395,0.0317383,0.0558472
73,4,0.0390625,0.0671387,0.0183105,0.292358,0.00854492,0.0265503,0.0186157,0.0012207,0.0482178,-0.11261,-0.0488281,0.0222778,0.113831
74,0,0.0360107,0.0888062,0.0314331,2.49451,0.0265503,0.0189209,0.0189209,0.00976562,0.00396729,-0.0595093,-0.0384521,0.0531006,0.0338745
74,1,0.0698853,0.0640869,0.0372314,3.29865,0.0137329,0.0338745,0.00640869,0.0140381,0.0247192,-0.0265503,-0.0378418,0.0317383,0.017395
74,2,0.0244141,0.0811768,0.0323486,3.30933,-0.0125122,0.0149536,0.0280762,0.0231934,0.0198364,0.00915527,-0.0421143,0.0198364,0.032959
74,3,0.0393677,0.0506592,0.0302124,3.30933,0.0238037,0.0216675,0.0131226,0.0283813,0.0253296,0.0875854,-0.0265503,0.0256348,0.0646973
74,4,0.0259399,0.0350952,-0.00213623,3.30109,0.012207,0.0335693,0.0204468,0.0256348,0.010376,0.0576782,-0.0354004,0.0616455,0.0418091
75,0,0.0363159,0.0469971,0.0234985,3.30444,0.0128174,0.0662231,0.0262451,0.0204468,0.0167847,0.0286865,-0.032959,0.017395,0.0314331
75,1,0.0286865,0.0283813,0.0360107,3.31604,0.0286865,0.0610352,-0.000610352,0,0.0296021,0.0402832,-0.0222778,0.0268555,0.0262451
75,2,0.0350952,0.00549316,0.0335693,3.30933,0.00152588,0.00183105,0.0375366,0.0186157,0.00823975,0.050354,-0.038147,0.0210571,0.0466919
75,3,0.0469971,0.0109863,0.0292969,3.19855,0.0259399,0.0247192,0.0402832,0.0216675,0.0186157,0.0372314,-0.0335693,0.0616455,0.0286865
75,4,0.0256348,0.0146484,0.0299072,1.57196,0.0497437,0.0198364,0.0210571,0.00640869,0.0167847,0.0631714,-0.0250244,0.0363159,0.0335693
76,0,0.0363159,0.0369263,0.0189209,-0.632935,0.0204468,0.0259399,0.000915527,-0.0140381,0.0131226,0.0860596,-0.0180054,0.0286865,0.0402832
76,1,0.00976562,0.0405884,0.022583,-2.45697,0.0186157,0.0274658,0.00183105,-0.00366211,0.0378418,0.0421143,-0.0311279,0.0613403,0.0192261
76,2,0.0354004,-0.0198364,0.0204468,-2.64252,-0.0524902,0.0320435,0.00427246,-0.0637817,0.0115967,0.0213623,-0.0140381,0.0201416,0.0256348
76,3,0.0253296,0.0109863,0.0415039,-2.57416,0.0201416,0.00152588,0.0408936,0.00915527,0.00610352,0.0372314,-0.0274658,0.0195312,0.0186157
76,4,0.0479126,0.0244141,0.0372314,-2.50641,0.0234985,0.00549316,0.0164795,0.0326538,-0.00488281,0.0186157,-0.0296021,0.032959,0.0332642
77,0,0.0338745,0.0421143,0.00549316,-2.45026,0.00335693,0.0338745,0.0268555,0.00762939,0.00183105,0.0250244,0.00854492,0.0216675,0.0231934
77,1,0.0445557,0.0323486,0.0445557,-2.39044,0.0204468,0.0234985,0.0216675,0.0186157,-0.0183105,0.00732422,-0.0271606,0.0274658,0.0396729
77,2,0.0286865,0.0253296,0.0421143,-2.3111,0.0280762,-0.00183105,0.00183105,0.0201416,0.0128174,0.0357056,-0.0656128,0.0274658,0.0292969
77,3,0.0192261,0.0604248,0.032959,-1.98853,0.0296021,0.0405884,-0.00396729,0.0274658,0.0164795,0.0357056,-0.0296021,0.0576782,0.0299072
77,4,0.0341797,0.0268555,-0.00183105,-0.394592,0.0274658,0.010376,0.0253296,0.0164795,0.00427246,0.0473022,-0.0350952,0.0445557,0.00305176
78,0,0.027771,0.0231934,0.0827026,1.76666,0.0274658,-0.032959,0.000915527,0.0125122,0.00762939,0.0500488,-0.0244141,0.0302124,0.0265503
78,1,0.039978,0.0411987,0.0265503,3.31299,-0.00183105,0.0219727,0.0314331,0.00579834,0.0363159,0.0354004,-0.0335693,0.0186157,0.0317383
78,2,0.0491333,0.0106812,0.0125122,3.284,0.0183105,0.0152588,0.0485229,0.0134277,0.0192261,0.0436401,-0.0311279,0.0180054,0.0311279
78,3,0.0415039,0.0247192,0.0189209,3.32092,0.0198364,0.0384521,0.00976562,0.0762939,-0.000915527,0.0302124,-0.0140381,0.0283813,0.0408936
78,4,0.0253296,0.00518799,0.0445557,3.30505,0.0247192,0.0695801,0.0253296,0.0238037,0.0109863,0.0320435,-0.0537109,0.0308228,0.0622559
79,0,0.00732422,0.0341797,0.0350952,3.31573,0.0637817,0.0256348,0.017395,0.027771,0.00671387,0.0292969,-0.0213623,0.0213623,0.0592041
79,1,0.0335693,-0.0109863,0.0125122,3.32428,0.027771,0.0473022,0.027771,0.012207,0.0692749,0.0228882,-0.0256348,0.0201416,0.0231934
79,2,0.0280762,-0.0109863,0.0274658,3.3197,0.020752,0.00427246,0.0369263,0.0137329,0.0405884,0.0231934,-0.0195312,0.0247192,0.0512695
79,3,0.0167847,0.0149536,0.0396729,3.32825,0.0241089,0.0772095,0.0411987,0.00274658,0.0280762,0.027771,-0.0308228,0.0222778,0.0454712
79,4,0.0393677,0.0204468,0.0933838,3.3078,0.0219727,0.0958252,0.0354004,0.032959,0.078125,0.0497437,-0.0259399,0.0390625,0.0198364
80,0,0.0338745,0.0308228,0.0396729,3.26233,0.0244141,0.027771,0.0231934,0.0601196,0.0256348,0.0234985,-0.0219727,0.0134277,0.0186157
80,1,0.0332642,0.0454712,0.0454712,3.19397,0.0366211,0.00457764,0.00396729,0.0183105,0.0192261,0.0405884,-0.0302124,0.0146484,0.0534058
80,2,0.0445557,0.0814819,0.0137329,3.12958,0.0186157,0.0088501,0.0256348,0.0283813,0.0228882,0.0234985,-0.0256348,0.0119019,0.0415039
80,3,0.0549316,0.0500488,0.0268555,3.05115,0.0296021,-0.000915527,-0.00335693,0.0363159,0.0286865,0.0375366,-0.00823975,0.0259399,0.0646973
80,4,-0.0201416,0.0299072,0.0259399,-2.95898,0.0271606,0.012207,0.00854492,0.0183105,0.0369263,0.0167847,-0.0396729,0.03479,0.0411987
81,0,0.039978,0.0375366,0.0357056,-3.12408,0.0222778,0.0128174,0.0335693,0.0195312,0.0137329,0.0296021,-0.0253296,0.00732422,0.0408936
81,1,-0.0299072,0.0320435,0.027771,-3.16162,0.0283813,0.0180054,0.0292969,0.0192261,0.0219727,0.0357056,-0.0439453,0.0344849,0.0323486
81,2,0.038147,0.0878906,0.0366211,-3.13568,-0.0222778,0.0164795,0.0115967,-0.0317383,0.0195312,0.0317383,-0.0170898,0.0167847,0.0308228
81,3,0.0195312,0.0418091,0.0244141,-2.96234,0.0152588,0.00946045,0.0189209,-0.00152588,0.0204468,0.0714111,-0.0234985,0.0204468,0.0830078
81,4,0.00946045,0.0814819,0.0482178,-1.53442,-0.0323486,0.010376,0.0234985,0.0161743,0.0357056,0.022583,-0.0274658,0.00823975,0.0354004
82,0,0.0222778,0.00610352,0.0454712,0.690613,0.0485229,-0.0296021,0.0177002,-0.00305176,0.0210571,0.0366211,-0.0296021,0.0131226,0.0338745
82,1,0.0186157,0.022583,0.0292969,2.75391,0.0222778,0.0143433,0.00946045,0.00854492,0.0292969,0.0430298,-0.0198364,0.00732422,0.0332642
82,2,0.0286865,0.015564,0.0537109,3.27301,0.0286865,0.0170898,0.0497437,0.0259399,0.0231934,0.0448608,-0.017395,0.0140381,0.0534058
82,3,0.0131226,-0.000305176,0.0283813,3.24768,0.0149536,0.00976562,0.0231934,0.0378418,0.0250244,0.0180054,-0.0289917,0.0256348,-0.0158691
82,4,0.0564575,-0.0137329,0.017395,3.16742,0.0161743,0.000610352,-0.00213623,0.022583,0.0338745,0.0341797,-0.0189209,0.0241089,0.0323486
83,0,0.0189209,-0.00854492,0.0192261,3.09113,0.0335693,0.00793457,0.017395,0.00976562,0.0479126,0.0280762,-0.0262451,0.0341797,0.0396729
83,1,0.0320435,-0.00183105,0.0378418,3.013,0.0247192,0.0259399,0.0338745,0.0100708,0.0280762,0.00396729,-0.00701904,0.0204468,0.0372314
83,2,0.0234985,0.0405884,0.0219727,2.8717,0.0418091,0.0454712,0.0268555,0.0131226,0.0332642,0.0454712,-0.0170898,0.0137329,0.0445557
83,3,0.0106812,0.0198364,0.0500488,2.53815,0.043335,0.0152588,0.0228882,0.0170898,0.0213623,0.0106812,-0.0256348,-0.0418091,0.0250244
83,4,0.0128174,-0.03479,0.0280762,1.02173,0.0335693,0.0134277,0.0268555,-0.0012207,0.0408936,0.00335693,-0.0201416,0.0195312,0.0375366
84,0,0.0238037,-0.0683594,0.0244141,-1.09009,0.0549316,0.0161743,-0.00183105,-0.00396729,0.0326538,0.0311279,-0.0231934,0.020752,0.0250244
84,1,0.010376,-0.00732422,0.0341797,-3.0011,0.0268555,-0.000610352,0.0186157,0.0195312,0.0204468,0.000305176,-0.0216675,0.0146484,0.0268555
84,2,0.0338745,0.0848389,0.0604248,-3.16284,0.00427246,0.0323486,0.0192261,0.0106812,0.0210571,0.0109863,-0.0170898,0.0189209,0.0253296
84,3,0.0152588,0.111389,0.0430298,-3.17444,0.0421143,0.015564,0.0180054,0.0466919,0.0393677,0.0256348,-0.0646973,0.0323486,0.022583
84,4,0.0228882,0.105286,0.0335693,-3.15979,0.0497437,0.017395,0.0344849,0.0247192,0.0366211,-0.00671387,-0.0289917,0.045166,0.0231934
85,0,0.010376,0.0805664,0.0259399,-3.172,0.0204468,0.0234985,-0.0222778,0.0125122,0.0384521,0.0198364,-0.0280762,0.0213623,0.0274658
85,1,0.0421143,0.0405884,0.0164795,-3.14575,0.0323486,0.0167847,0.0817871,0.0332642,0.0305176,0.045166,-0.0216675,0.0128174,0.0543213
85,2,-0.0012207,0.0289917,0.0296021,-3.05176,0.0393677,0.00854492,0.0244141,0.0210571,0.0140381,0.0637817,-0.0241089,0.0274658,0.00579834
85,3,-0.0213623,0.0411987,0.0320435,-2.84424,0.0338745,0.0234985,0.0280762,0.03479,0.012207,0.0109863,0.0100708,0.0259399,-0.0350952
85,4,0.015564,0.0460815,-0.0146484,-1.51764,0.0363159,-0.0149536,0.0149536,0.0140381,0.0149536,0,-0.0177002,0.0119019,0.0595093
86,0,0.0134277,0.0210571,0.0326538,0.426331,0.0521851,0.017395,0.0305176,0.0137329,0.0167847,-0.000915527,-0.0259399,0.0241089,0.0366211
86,1,0.0161743,0.0186157,0.0314331,2.44324,0.0274658,0.0167847,0.0436401,0.027771,0.0201416,-0.0109863,-0.0128174,0.0250244,0.0360107
86,2,0.0167847,0.010376,0.0448608,3.31543,0.0500488,0.0244141,0.0161743,-0.00366211,0.0143433,0.00183105,-0.0247192,0.0228882,0.0320435
86,3,0.0354004,-0.00549316,0.0180054,3.31543,0.0357056,0.0250244,0.017395,0.0201416,0.0363159,0.0149536,-0.0100708,0.0201416,0.0219727
86,4,0.0146484,-0.00579834,0.0820923,3.24921,0.0305176,0.0247192,0.050354,0.0442505,0.0283813,-0.00823975,-0.0128174,0.0274658,0.0262451
87,0,0.0128174,-0.000915527,0.0140381,3.12988,0.0396729,0.0442505,0.0415039,0.0390625,0.0518799,0.0161743,-0.0210571,0.00396729,0.0274658
87,1,0.0335693,0.0314331,0.00640869,3.08014,0.0323486,0.0213623,0.0494385,0.00823975,0.0137329,-0.000305176,-0.00366211,0.0244141,0.0201416
87,2,0.0210571,0.022583,0.020752,2.98706,0.0350952,0.0262451,0.022583,0.0286865,-0.00915527,0.0149536,-0.0314331,0.0274658,0.00213623
87,3,0.0158691,0.0485229,0.027771,2.66846,0.0344849,0.0241089,0.0088501,-0.017395,0.0228882,-0.0100708,-0.0561523,-0.00366211,0.0338745
87,4,0.0268555,0.039978,0.0311279,1.23932,0.067749,0.0210571,0.0262451,0.0186157,0.00396729,-0.0115967,-0.0244141,0.0457764,0.027771
88,0,0.0192261,0.0280762,0.0350952,-0.780029,0.0216675,0.0476074,0.0241089,0.0164795,0.00946045,-0.00274658,-0.0491333,0.0161743,0.0308228
88,1,0.0582886,0.0125122,0.022583,-2.73529,0.0564575,0.0283813,0.012207,0.0213623,0.0274658,-0.0567627,0.00671387,0.0204468,-0.0259399
88,2,0.0125122,0.0146484,0.0247192,-3.17139,0.0384521,0.0244141,0.0384521,0.0167847,0.0164795,-0.0140381,-0.0106812,0.0262451,-0.045166
88,3,0.0177002,0.0250244,0.0222778,-3.17963,0.032959,0.0933838,0.0238037,0.022583,0.043335,0.00671387,-0.0201416,0.0244141,0.0286865
88,4,0.0234985,0.0241089,0.0177002,-3.15369,0.0357056,0.0219727,0.0106812,0.0354004,0.0244141,0.0372314,-0.0253296,0.0238037,0.0253296
89,0,0.00854492,0.0357056,0.00152588,-3.1842,0.0228882,0.0411987,0.00793457,0.0567627,0.0265503,0.0210571,0.00244141,0.00366211,0.00457764
89,1,0.0210571,0.0561523,0.0384521,-3.10516,0.0387573,0.0177002,0.0350952,0.0308228,-0.00488281,0.0134277,-0.0204468,-0.0402832,0.0280762
89,2,0.0158691,0.0119019,0.0405884,-3.00812,0.0357056,0.015564,0.00274658,0.00183105,0.0210571,0.0213623,-0.020752,0.0119019,0.0665283
89,3,0.0256348,0.00396729,0.0778198,-2.88635,0.0292969,-0.0106812,0.0286865,0.039978,0.0167847,-0.0161743,-0.0131226,0.0140381,0.0341797
89,4,0.0134277,-0.0289917,-0.0198364,-1.79779,0.0518799,-0.0149536,0.0210571,0.0192261,0.0375366,0.0195312,-0.0134277,0.0769043,0.0317383
90,0,0.000915527,0.0134277,0.0234985,0.171509,0.0335693,0.027771,0.0192261,0.0137329,0.0152588,0.010376,-0.0222778,0.0210571,0.0350952
90,1,-0.0186157,-0.0180054,-0.00244141,2.40112,0.0323486,0.0424194,0.0271606,0.0140381,0.0247192,0.00305176,-0.0119019,0.0262451,0.0354004
90,2,0.0198364,-0.0131226,0.0308228,3.31207,0.100403,0.0256348,0.00579834,-0.0405884,0.0259399,0.0228882,-0.0167847,0.0460815,0.0186157
90,3,0.0460815,-0.0241089,0.0238037,3.33954,0.038147,0.0341797,0.0198364,0.0305176,0.0244141,-0.00335693,-0.00915527,0.0259399,0.0692749
90,4,0.0161743,-0.022583,0.0286865,3.29468,0.0393677,0.0164795,0.0405884,0.0268555,0.0500488,0.0195312,-0.027771,0.0204468,0.022583
91,0,0.0180054,0.00335693,0.0231934,3.22205,0.0402832,0.0357056,0.0283813,0.0250244,-0.0259399,0.00793457,-0.0125122,0.0292969,0.0216675
91,1,0.0418091,0.0143433,0.0234985,3.1665,0.0283813,0.0271606,0.0561523,0.032959,0.0180054,-0.000305176,-0.0167847,0.0161743,0.0338745
91,2,0.0354004,0.0680542,0.0231934,2.97302,0.0234985,0.0222778,0.0372314,0.0137329,0.0262451,0.0128174,-0.0186157,0.00518799,0.0268555
91,3,0.0427246,0.0900269,-0.000610352,2.836,0.0299072,0.0357056,0.00793457,0.0201416,0.0231934,0.010376,-0.0292969,0.0170898,0.0210571
91,4,0.0570679,0.0796509,0.00610352,1.48926,0.0366211,0.0454712,0.0253296,0.0390625,0.0106812,-0.00213623,-0.0253296,0.0244141,-0.00244141
92,0,0.0259399,0.0634766,0.0262451,-0.472107,0.0299072,0.0238037,0.0411987,0.0543213,0.0195312,0.020752,-0.0454712,0.0241089,0.00396729
92,1,0.0415039,0.0653076,0.0271606,-3.0954,0.0198364,0.0250244,0.123291,0.0341797,0.00579834,0.0112915,-0.03479,0.0231934,-0.0283813
92,2,0.0143433,0.0482178,0.039978,-3.16956,0.0357056,0.0796509,0.0454712,0.0238037,0.0146484,0.0250244,-0.0134277,0.0198364,0.017395
92,3,0.0192261,0.0265503,0.0524902,-3.18756,0.0296021,0.0524902,0.0210571,0.0488281,0.0344849,0.0201416,-0.0363159,0.0115967,0.0244141
92,4,0.0161743,0.0350952,0.00671387,-3.2019,0.0268555,0.0180054,0.0512695,0.027771,0.0869751,0.0521851,-0.0238037,0.0445557,0.0164795
93,0,0.00762939,0.0250244,0.0152588,-3.15582,0.0390625,0.0161743,0.00915527,0.00335693,0.0250244,0.0299072,-0.017395,0.0250244,0.0183105
93,1,0.0256348,0.0439453,0.00762939,-3.07709,0.0244141,0.0320435,0.045166,0.0375366,0.0283813,0.0241089,-0.0369263,0.0308228,0.0457764
93,2,0.0357056,-0.0430298,0.012207,-2.96814,0.0311279,0.0350952,0.0442505,0.0204468,0.0250244,0.0350952,-0.020752,0.0170898,0.0146484
93,3,0.0128174,0.0137329,0.0787354,-2.85645,0.0308228,0.0378418,0.055542,0.0234985,0.0564575,0.00823975,-0.0234985,-0.00488281,-0.00915527
93,4,0.022583,0.017395,0.0219727,-1.7099,0.0524902,0.0204468,0.0299072,0.00335693,0.0280762,0.0338745,-0.0244141,0.0396729,0.0170898
94,0,-0.00183105,0.00518799,0.0167847,0.318909,0.0262451,0.0396729,-0.000305176,0.0158691,0.0473022,0.00823975,-0.0198364,0.00762939,0.0283813
94,1,0.0323486,0.0100708,0.0128174,2.42126,0.0219727,0.027771,0.0369263,-0.0323486,0.022583,0.0335693,-0.0268555,0.0128174,0.012207
94,2,-0.000915527,0.017395,0.0189209,3.28674,0.0238037,0.0305176,0.0396729,0.00579834,0.0143433,0.0216675,0.0088501,0.0283813,0.0405884
94,3,0.0204468,0.0210571,0.0366211,3.30231,0.0204468,0.0360107,0.0283813,0.0323486,0.0109863,0.0265503,0.0149536,0.0234985,0.039978
94,4,0.0152588,0,0.0610352,3.3136,0.0415039,0.0579834,0.0421143,0.0326538,-0.0262451,0.0274658,-0.00946045,0.0622559,0.0231934
95,0,0.0296021,-0.00213623,0.00274658,3.22998,0.0341797,0.0408936,0.03479,0.0488281,0.000610352,0.0259399,-0.0289917,0.0152588,0.0244141
95,1,0.0305176,-0.0195312,0.0338745,3.15796,0.027771,0.0149536,0.0427246,0.0158691,0.0198364,0.017395,-0.0180054,0.0271606,0.00152588
95,2,0.027771,0.0167847,-0.0479126,3.05573,0.0396729,0.0683594,0.0375366,0.027771,0.0241089,0.020752,-0.0274658,0.0271606,0.0198364
95,3,0.0210571,0.0115967,0.00946045,2.92664,0.0283813,0.0289917,0.0299072,0.0164795,0.0250244,0.0421143,-0.0372314,0.017395,-0.0305176
95,4,0.00183105,-0.00335693,0.0302124,1.76941,0.0427246,0.0323486,0.0357056,-0.0344849,0.0250244,0.0186157,-0.0234985,0.017395,0.00946045
96,0,0.0195312,0.015564,0.0210571,-0.164185,0.0164795,0.0292969,-0.00366211,0.0320435,0.0405884,0.0204468,-0.0131226,0.0244141,0.00305176
96,1,0.0100708,0.00366211,0.0152588,-2.3642,0.0238037,0.0390625,0.0473022,0.010376,0.0350952,0.0482178,-0.0296021,0.0088501,0.0146484
96,2,0.0167847,0.0244141,-0.0228882,-3.17688,0.0311279,0.0390625,0.0238037,0.0338745,0.0430298,0.0457764,-0.0265503,0.0198364,0.0164795
96,3,0.0186157,0.03479,0.0265503,-3.18787,0.0311279,0.03479,0.0189209,0.0262451,0.0286865,0.0378418,-0.0323486,0.0195312,0.0186157
96,4,0.0320435,0.0259399,0.0454712,-3.18878,0.0201416,0.0323486,0.0393677,0.0421143,0.0393677,0.0219727,-0.00854492,0.0619507,0.015564
97,0,0.0259399,0.0137329,0.0152588,-3.16833,-0.000915527,0.0210571,0.0167847,0.00671387,0.0286865,0.0247192,-0.0213623,0.0100708,0.0222778
97,1,0.0167847,0.0265503,0.0311279,-3.10516,0.0189209,0.0427246,0.0424194,0.0357056,0.0128174,0.0219727,-0.0189209,-0.00671387,0.0170898
97,2,-0.00244141,0.00854492,0.0262451,-3.01514,0.0305176,0.0326538,0.0482178,0.0622559,0.0152588,0.0183105,-0.00732422,0.010376,0.012207
97,3,0.0137329,0.0341797,0.0256348,-2.88574,0.0613403,0.0299072,0.0244141,0.0350952,0.0234985,0.0332642,-0.0393677,0.0454712,0.0177002
97,4,0.0332642,0.00305176,0.0338745,-1.32263,0.0250244,0.0476074,0.043335,0.0192261,0.0683594,0.0216675,-0.0262451,0.00976562,0.00946045
98,0,0.0140381,-0.0534058,0.0125122,0.245972,0.0186157,0.0192261,0.0201416,0.0717163,0.0326538,0.0274658,-0.0234985,0.0177002,0.00305176
98,1,0.0308228,-0.0439453,-0.00335693,2.24274,0.027771,0.0332642,0.0253296,0.038147,0.0259399,0.0131226,-0.022583,0.0189209,0.0256348
98,2,0.0848389,-0.0390625,0.00671387,3.31757,0.0369263,0.0234985,-0.00732422,0.0408936,0.0152588,0.0125122,-0.0189209,0.0088501,0.0149536
98,3,0.0128174,-0.0167847,0.0109863,3.31055,0.0289917,0.0372314,0.0332642,0.0341797,0.0308228,0.0369263,-0.0271606,0.00579834,0.0195312
98,4,0.0271606,0.0152588,0.0253296,3.30048,0.0201416,0.0253296,0.00549316,0.0363159,0.0387573,0.0338745,-0.0149536,0.0149536,-0.000305176
99,0,0.0177002,0.0531006,0.0421143,3.21228,0.0244141,0.0390625,0.0524902,0.038147,0.0296021,0.0357056,-0.03479,0.0164795,0.0262451
99,1,0.012207,0.0131226,0.0109863,3.13293,0.00671387,0.0292969,0.0570679,0.038147,0.038147,-0.00335693,-0.0262451,0.0167847,-0.0512695
99,2,0.00396729,0.0628662,0.0219727,3.04169,0.0170898,0.0323486,0.0259399,0.0222778,0.0320435,0.0274658,-0.000915527,0.015564,0.0128174
99,3,0.032959,0.0866699,0.0189209,2.90039,0.0183105,0.0595093,0.0253296,0.0405884,0.0476074,0.0335693,-0.0125122,0.022583,0.0271606
99,4,0.0259399,0.0714111,0.00549316,1.86554,0.00762939,0.0411987,0.0100708,0.055542,0.0256348,0.0366211,-0.0408936,0.0311279,0.0167847
100,0,0.09552,0.0463867,0.0106812,0.0482178,0.0177002,0.0216675,0.0906372,0.0286865,0.0292969,-0.0247192,-0.0137329,0.00671387,0.0311279
100,1,0.0296021,0.0332642,0.0296021,-2.06085,0.0204468,0.0317383,0.020752,0.0268555,0.0393677,0.0164795,-0.0326538,0.0286865,0.0274658
100,2,0.0149536,0.0247192,0.0119019,-3.03406,0.0344849,0.0305176,-0.0125122,0.0415039,0.020752,0.0332642,-0.0393677,0.00915527,0.0152588
100,3,0.0137329,0.020752,0.0280762,-2.96326,0.0109863,0.0250244,0.0387573,0.0366211,0.0164795,0.0344849,-0.0259399,0.00762939,0.00518799
100,4,0.0210571,0.00427246,0.0210571,-2.86621,0.00762939,0.0271606,0.0390625,0.0152588,0.0161743,0.0210571,-0.0332642,-0.0143433,0.038147
101,0,-0.00427246,0.0125122,0.0119019,-2.83447,-0.00701904,0.03479,0.0247192,0.0192261,0.0238037,0.032959,-0.0390625,0.017395,0.0152588
101,1,0.00915527,0.0213623,0.00946045,-2.75116,0.0213623,0.0204468,0.0305176,0.0271606,0.0201416,0.0311279,-0.0378418,0.0100708,0.0216675
101,2,0.0164795,0.0424194,0.0143433,-2.67792,0.0286865,0.0332642,0.00610352,0.0216675,0.0265503,0.0302124,-0.0195312,0.0286865,0.00976562
101,3,0.0299072,0.00976562,0.020752,-2.6178,0.0231934,0.0271606,0.0109863,0.0463867,0.0149536,0.0332642,-0.0335693,0.0128174,0.0228882
101,4,0.0143433,0.0192261,0.0241089,-2.60651,0.0234985,0.0296021,-0.0137329,0.0158691,0.0283813,0.032959,-0.0234985,0.0210571,0.0125122
102,0,0.0177002,0.0201416,-0.00732422,-2.49908,0.0158691,0.0292969,0.0396729,0.032959,0.0839233,0.0344849,-0.0244141,-0.00671387,0.00793457
102,1,0.0183105,0.0247192,0.020752,-2.43256,0.0234985,0.0241089,0.0396729,0.0253296,0.0289917,0.0137329,-0.0637817,0.0146484,0.0213623
102,2,0.0485229,0.0161743,0.0119019,-2.36053,0.0253296,0.0390625,0.0384521,0.0372314,0.0323486,0.0445557,-0.0201416,0.0109863,0.0238037
102,3,0.00610352,0.00305176,0.00793457,-2.30713,0.0131226,0.000610352,-0.0140381,0.020752,0.0457764,0.0128174,-0.0271606,0.00854492,0.00976562
102,4,0.0460815,-0.000610352,0.0332642,-2.26685,0.0515747,0.0296021,0.0265503,-0.00732422,0.0439453,0.0314331,-0.0222778,0.0296021,-0.0180054
103,0,0.0350952,0.0256348,0.0198364,-2.22015,0.0204468,0.0292969,0.0241089,0.0576782,0.0265503,0.0509644,-0.0271606,0.0149536,0.0476074
103,1,0.00305176,0.00976562,0.0296021,3.29956,0.022583,0.0106812,0.0115967,0.0366211,0.0311279,0.0286865,-0.0302124,0.00305176,0.000915527
103,2,0.0439453,-0.0106812,0.000610352,3.30231,0.000305176,0.0427246,0.022583,0.0234985,0.0341797,0.0311279,-0.0366211,0.010376,0.0314331
103,3,0.0125122,-0.0012207,0.0109863,3.29956,0.0274658,0.0311279,0.0131226,0.0344849,0.0415039,0.0222778,-0.0366211,0.0152588,0.038147
103,4,0.0283813,-0.0323486,0.00335693,2.56622,0.0143433,0.0289917,0.010376,0.0222778,0.0366211,0.0357056,-0.0302124,0.0125122,0.0158691
104,0,0.0158691,0.0146484,0.00488281,0.64209,-0.00244141,0.0192261,0.0140381,-0.010376,0.0323486,0.0274658,-0.0231934,0.0247192,0.0238037
104,1,-0.00274658,0.0137329,0.0534058,-1.28082,0.0262451,0.00854492,0.0189209,0.0308228,0.0308228,0.0234985,-0.027771,0.0134277,0.027771
104,2,0.0283813,0.0192261,0.0305176,-2.80243,0.00610352,-0.00579834,0.0274658,0.0500488,0.0576782,0.0164795,-0.0418091,0.0128174,0.00335693
104,3,0.0335693,0.0170898,-0.00488281,-2.78442,-0.000915527,0.0326538,0.0271606,0.0292969,0.0286865,0.0231934,-0.0384521,0.00640869,0.0314331
104,4,0.0106812,0.0332642,0.0183105,-2.70721,-0.0222778,0.0192261,0.0424194,0.0286865,0.0439453,0.0378418,-0.0296021,0.0180054,0.0201416
105,0,0.0253296,0.093689,0.0259399,-2.64282,0.00976562,0.032959,0.0241089,0.0326538,0.0524902,0.045166,-0.0262451,0.015564,0.0305176
105,1,0.0350952,0.050354,0.00701904,-2.58423,0.00793457,0.00274658,0.0369263,0.017395,0.0164795,0.0378418,-0.00396729,0.0158691,0.0363159
105,2,-0.0305176,0.0323486,0.017395,-2.51282,0.0241089,0.0402832,0.0119019,-0.0115967,0.0509644,0.0375366,-0.00457764,0.0170898,0.0244141
105,3,0.0265503,0.0134277,-0.00335693,-2.4231,0.0161743,0.0189209,0.00854492,0.0204468,0.0350952,0.0259399,-0.0695801,0.00274658,0.0527954
105,4,0.0170898,0.0323486,-0.00579834,-1.91986,0.0112915,0.0167847,0.0247192,0.0372314,0.0448608,0.0326538,-0.0271606,0.0198364,0.0192261
106,0,0.0198364,0.00610352,0.0134277,-0.186462,0.0109863,0.0195312,0.0131226,0.0164795,0.0350952,0.0552368,-0.0167847,0.0265503,0.0149536
106,1,0.0228882,0.0259399,0.0201416,1.91711,0.017395,0.00549316,0.0198364,0.0350952,0.0442505,0.0424194,-0.0292969,0.022583,-0.00274658
106,2,0.0149536,-0.0115967,0.0280762,3.27332,0.0131226,0.0262451,0.050354,0.00457764,0.038147,0.0750732,-0.0421143,0.0201416,0.0250244
106,3,0.00488281,-0.00274658,0.0332642,3.30261,0.0234985,0.0500488,0.0540161,0.0213623,0.0265503,0.0299072,-0.0354004,0.0238037,0.0253296
106,4,0.0238037,0.0265503,0.0292969,3.2959,0.0198364,-0.0164795,0.0390625,0.0326538,-0.0189209,0.0448608,-0.0378418,0.00793457,0.0222778
107,0,0.0109863,0.0323486,-0.0177002,3.29163,0.0262451,-0.00244141,0.0244141,0.0387573,0.0338745,0.0521851,-0.0268555,0.0210571,0.0378418
107,1,0.0292969,0.0219727,-0.0244141,3.32001,0.0201416,0.0772095,0.0360107,0.0253296,0.0186157,0.0216675,-0.0302124,0.0271606,0.0149536
107,2,0.0299072,0.0222778,0.0323486,3.28308,0.0234985,-0.00946045,0,0.0268555,0.0317383,0.0192261,-0.0311279,0.0299072,0.0323486
107,3,0.0247192,0.0564575,0.0262451,3.29132,0.0286865,0.0192261,0.0317383,0.0366211,0.0314331,0.045166,-0.0280762,0.0143433,0.00823975
107,4,0.0442505,0.0558472,0.015564,2.6593,0.00152588,0.027771,0.00976562,0.0265503,0.0305176,0.0408936,-0.0405884,0.0170898,-0.00427246
108,0,-0.00457764,0.0326538,0.0192261,0.896912,0.0299072,0.0140381,0.0424194,-0.0326538,0.0387573,0.0476074,-0.0561523,0.0231934,0.00976562
108,1,0.0421143,0.0234985,0.00854492,-1.40259,0.0415039,0.0231934,-0.00274658,0.0088501,0.0357056,0.0012207,-0.027771,0.0100708,0.0250244
108,2,0.0308228,0.03479,0.00427246,-3.03314,0.00915527,0.0161743,0.00305176,0.0283813,0.0387573,0.0552368,-0.0314331,0.0146484,0.0213623
108,3,0.0158691,0.0119019,0.0228882,-3.01239,0.0152588,0.00305176,0.0244141,0.0332642,0.0192261,0.0378418,-0.0283813,-0.0247192,0.027771
108,4,0.0186157,0.0213623,0.050354,-2.9361,0.012207,0.0170898,0.0363159,0.0299072,0.0430298,0.038147,-0.0393677,0.0216675,0.0314331
109,0,0.0650024,-0.00946045,0.0170898,-2.83203,0.0271606,0.0112915,0.0405884,0.0308228,0.0296021,0.00549316,-0.0561523,0.0244141,0.0460815
109,1,-0.00579834,0.0143433,0.0286865,-2.78687,0.0238037,0.0247192,0.0161743,0.0466919,-0.0350952,0.0363159,-0.0338745,0.113831,0.0167847
109,2,0.0595093,0.00305176,0.0152588,-2.7121,0.0274658,0.0137329,0.0308228,0.0387573,0.0454712,0.0234985,-0.0109863,0.0241089,0.0115967
109,3,0.0842285,0.0247192,0.0256348,-2.59857,0.0131226,0.0250244,0.0314331,0.0274658,0.0341797,0.0296021,-0.0268555,0.0180054,0.020752
109,4,0.0387573,0.0268555,0.0134277,-2.12708,0.0164795,-0.00305176,0.0762939,0.0262451,0.03479,0.0820923,-0.0384521,0.0616455,0.0460815
110,0,0.0445557,0.0100708,0.0292969,-0.535889,0.00671387,0.0195312,0.00793457,0.0250244,0.0326538,0.00427246,-0.0408936,0.0335693,0.0262451
110,1,0.0271606,0.0164795,0.0112915,1.65833,0.0228882,-0.0195312,0.000915527,0.0244141,-0.0149536,0.0164795,-0.03479,0.0308228,0.0259399
110,2,0.0350952,0.0146484,-0.000305176,3.30139,0.00244141,0.0201416,0.0265503,0.0418091,0.0491333,0.0271606,-0.0579834,0.0372314,0.0183105
110,3,0.00274658,0.0115967,0.00701904,3.30688,0.00793457,0.00915527,0.0375366,0.0271606,0.0521851,0.020752,-0.032959,0.0289917,0.0332642
110,4,0.0393677,0.0302124,0.0247192,3.29407,0.0177002,-0.00457764,0.0180054,0.0204468,0.0314331,0.0186157,-0.03479,0.0119019,0.0180054
111,0,0.0543213,0.03479,0.00396729,3.29865,0.00854492,0.00793457,0.0326538,0.0494385,0.0436401,0.0228882,-0.0445557,0.0112915,0.0186157
111,1,0.0341797,0.00854492,0.0146484,3.29285,0.0265503,0.0262451,0.000915527,0.045166,0.0753784,0.0140381,-0.00823975,0.0247192,0.0357056
111,2,0.0357056,0.0396729,0.00976562,3.30872,0.0268555,0.0271606,0.0415039,0.0231934,0.0332642,0.00915527,-0.0250244,0.0393677,0.0445557
111,3,0.0320435,0.00793457,0.027771,3.22296,0.00915527,0.0222778,0.0125122,0.0622559,-0.00396729,0.0161743,-0.0341797,0.0180054,0.0250244
111,4,0.0250244,0.0320435,0.0262451,2.70386,-0.0366211,0.0137329,0.0186157,0.109253,0.0311279,0.0363159,-0.0396729,0.0286865,0.0213623
112,0,0.0180054,0.0119019,0.0430298,0.905151,0.0247192,0.00640869,0.000305176,0.0271606,0.0137329,0.0708008,-0.0363159,0.0274658,0.0262451
112,1,0.0762939,-0.0222778,0.0283813,-1.26221,0.0195312,0.00244141,0.0134277,0.0238037,0.022583,0.0378418,-0.0482178,0.0234985,0.0222778
112,2,0.050354,0.000305176,0.0109863,-3.13782,0.0192261,0.0112915,0.0131226,0.0112915,0.0320435,0.0357056,-0.0250244,0.0344849,0.0296021
112,3,0.032959,-0.0274658,-0.00518799,-3.15002,0.0317383,0.0204468,0.027771,0.0332642,0.00915527,0.0213623,-0.0317383,0.0335693,0.0335693
112,4,0.0259399,0.000915527,0.00793457,-3.06213,0.0799561,0.0149536,0.0167847,-0.055542,0.0256348,0.0244141,-0.0180054,0.0341797,0.0213623
113,0,0.0216675,-0.00793457,0.0189209,-2.98279,0.00518799,-0.0317383,0.0149536,0.0198364,0.00915527,0.0332642,-0.0311279,0.0299072,0.0219727
113,1,0.0488281,0.000610352,0.0012207,-2.89246,0.0271606,0.0140381,0.039978,0.012207,0.0134277,0.0427246,-0.022583,0.0125122,0.027771
113,2,0.0418091,0.0628662,0.0177002,-2.8302,-0.0363159,0.0112915,0.0180054,0.0439453,0.0140381,0.0265503,-0.027771,0.0271606,0.027771
113,3,0.0640869,0.0323486,0.0244141,-2.7594,0.0106812,0.0134277,-0.00366211,0.032959,0.0268555,0.0616455,-0.039978,0.0360107,0.0152588
113,4,0.0241089,0.0732422,0.0213623,-2.45911,0.0161743,0.0216675,0.0613403,0.0195312,-0.0189209,0.0454712,-0.0357056,0.0457764,0.0180054
114,0,0.0247192,0.109863,0.0140381,-0.899658,0.015564,-0.00579834,0.00823975,0.00518799,0.0216675,0.038147,-0.0204468,0.0354004,0.0418091
114,1,0.0601196,0.0808716,0.0146484,1.12061,0.00366211,0.00946045,0.0280762,0.0216675,0.0231934,0.0338745,-0.0305176,0.0506592,0.0198364
114,2,0.0210571,0.0439453,0.0204468,3.10425,0.0177002,0.0231934,0.0283813,0.00335693,0.0506592,0.0448608,-0.038147,0.0268555,0.0317383
114,3,0.0274658,0.017395,0.0390625,3.29865,-0.0131226,0.0228882,0.0357056,-0.0213623,0.032959,0.0482178,0.00671387,0.0256348,0.0210571
114,4,0.0296021,0.0241089,0.0262451,3.31665,0.0201416,0.0128174,0.0115967,0.0296021,0.0115967,0.0170898,-0.0289917,-0.0216675,0.0448608
115,0,-0.0247192,0.00976562,0.0360107,3.27271,0.0137329,0.0238037,0.0186157,-0.00274658,0.0421143,0.039978,-0.0183105,0.0128174,0.0317383
115,1,0.00823975,0.00732422,0.0390625,3.30994,0.012207,-0.000915527,0.0253296,0.0524902,0.0216675,0.0338745,-0.0204468,0.0311279,0.0280762
115,2,0.0271606,0.0494385,0.00915527,3.30872,0.0219727,0.0106812,0.0088501,0.0228882,0.0250244,0.00579834,-0.0274658,0.0527954,0.0357056
115,3,0.0320435,0.00366211,0.032959,3.16589,-0.00579834,0.00640869,0.0131226,0.0595093,0.0421143,0.0485229,-0.0332642,0.0531006,0.0256348
115,4,0.0360107,-0.0299072,0.0280762,2.82715,-0.0137329,0.020752,0.0332642,0.0274658,0.0292969,0.0482178,-0.0289917,0.0415039,0.0189209
116,0,0.0946045,0.00854492,0.0268555,1.13556,0.0335693,0.020752,0.0234985,0.0378418,0.0216675,0.0491333,-0.057373,0.0219727,-0.000915527
116,1,0.0320435,0.0247192,0.0231934,-0.870972,0.0259399,0.00457764,0.017395,-0.00701904,0.00640869,0.0302124,-0.039978,0.0341797,-0.0363159
116,2,0.0259399,0.0170898,0.0393677,-2.88116,0.0204468,0.015564,-0.0402832,0.0296021,-0.00427246,0.0448608,-0.0128174,0.0323486,0.0418091
116,3,0.0308228,0.0494385,0.0219727,-3.18268,0.0210571,0.0265503,0.00549316,0.0250244,-0.0152588,0.0476074,-0.0283813,0.03479,0.065918
116,4,-0.0317383,0.0421143,0.0128174,-3.13385,0.0256348,0.00366211,0.0582886,0.0134277,0.0167847,0.0088501,-0.032959,0.0326538,0.0341797
117,0,0.0338745,0.0384521,0.0360107,-3.07465,0.0326538,0.00274658,0.0186157,0.0280762,0.00457764,0.015564,-0.0650024,0.0369263,0.0262451
117,1,0.00213623,0.0561523,0.0375366,-2.99194,0.0192261,0.017395,0.0286865,-0.0268555,0.0161743,0.0579834,-0.0262451,0.00518799,0.0253296
117,2,0.0115967,0.0445557,0.0241089,-2.91351,-0.000610352,0.0296021,0.00762939,-0.00183105,0.0186157,0.0369263,-0.0350952,-0.0213623,0.0311279
117,3,0.0088501,0.00518799,0.0305176,-2.85339,0.0296021,0.00518799,0.0491333,0.0167847,0.0408936,0.0244141,-0.045166,0.0390625,0.0241089
117,4,0.0335693,0.0244141,-0.0289917,-2.57446,0.022583,0.0256348,-0.00854492,0.0152588,0.0375366,0.0268555,-0.0338745,0.032959,0.0311279
118,0,0.0112915,0.0344849,0.0180054,-1.07361,0.0161743,0.0177002,0.0186157,-0.00427246,0.00274658,-0.015564,-0.0360107,0.0289917,0.0469971
118,1,0.032959,0.0250244,0.00793457,1.00525,0.0262451,0.0244141,0.0170898,-0.00488281,0.0149536,0.020752,-0.0189209,0.0152588,0.0384521
118,2,0.00915527,0.0372314,0.0466919,3.06091,0.0292969,-0.00396729,0.0231934,-0.0244141,0.0411987,0.0338745,-0.0228882,0.0405884,0.0238037
118,3,0.0289917,0.0109863,0.0167847,3.30933,-0.0262451,0.0308228,0.0146484,0.0375366,0.0152588,0.043335,-0.022583,0.0411987,0.0460815
118,4,0.0314331,0.017395,0.0149536,3.27667,0.0186157,0.0201416,0.0115967,0.0338745,0.0271606,0.0494385,-0.0341797,0.0189209,0.0296021
119,0,0.020752,0.0653076,0.00427246,3.30597,0.0759888,0.0149536,0.0265503,0.00610352,0.0518799,0.0204468,-0.0259399,0.0631714,0.0323486
119,1,0.010376,0.0128174,0.0274658,3.30383,0.0323486,0.03479,0.0131226,0.0109863,0.0408936,0.0180054,-0.0286865,0.0305176,0.0286865
119,2,-0.0167847,0.0231934,0.0238037,3.25195,0.0317383,0.0164795,-0.0305176,0.0469971,0.0439453,0.0146484,-0.0357056,0.0317383,0.0271606
119,3,0.0326538,-0.00183105,0.0292969,3.11127,-0.0112915,0.0268555,0.0238037,-0.00457764,0.0134277,0.020752,-0.0289917,0.0619507,0.0253296
119,4,0.0198364,0.0152588,0.0448608,2.73865,0.0137329,0.0204468,0.0201416,0.0253296,0.0524902,0.0244141,-0.00518799,0.0238037,0.0332642
120,0,0.065918,0.0378418,0.0405884,1.2326,0.0280762,0.0128174,-0.0231934,-0.00701904,0.0390625,-0.0408936,0.0167847,0.0326538,-0.0201416
120,1,0.0332642,0.0488281,0.0247192,-0.705566,0.020752,0.0219727,-0.00488281,0.00762939,0.0341797,0.0268555,-0.0360107,0.0360107,0.0460815
120,2,0.0427246,0.0402832,0.0256348,-2.65137,0.03479,0.0674438,0.0106812,0.0140381,0.0369263,0.0473022,-0.0363159,0.0369263,0.0448608
120,3,0.027771,0.0180054,0.0253296,-3.18359,0.0286865,0.017395,0.0158691,0.0234985,0.012207,0.0354004,-0.0338745,0.0280762,0.0549316
120,4,0.039978,0.0646973,0.0335693,-3.18695,0.0366211,0.0265503,0.0167847,0.039978,0.0308228,0.0375366,-0.0238037,0.0280762,0.0323486
121,0,0.0296021,0.0430298,0.0259399,-3.1076,0.0268555,0.012207,-0.00976562,0.0250244,0.0158691,0.0234985,-0.0274658,0.0384521,0.0231934
121,1,0.0668335,0.0460815,0.0439453,-3.1012,0.0247192,0.0408936,0.0192261,-0.00244141,0.00823975,0.0268555,-0.0012207,0.0216675,0.0219727
121,2,0.0253296,0.0558472,0.0250244,-2.98584,0.0534058,0.0274658,0.0274658,-0.0143433,0.0146484,0.0195312,-0.0320435,0.0372314,0.0253296
121,3,0.0527954,0.010376,0.0201416,-2.87262,0.10498,0.0195312,0.0286865,-0.06073,0.00457764,0.0256348,-0.0344849,0.0134277,0.0247192
121,4,0.0158691,0.0476074,0.00152588,-2.7536,0.0250244,-0.00671387,0.0238037,0.020752,0.0259399,0.0186157,-0.0183105,0.03479,0.0161743
122,0,0.0137329,0.03479,0.00915527,-1.55762,0.03479,0.0204468,0.0292969,0.00976562,0,0.022583,-0.0286865,0.00549316,0.0332642
122,1,0.0595093,0.0335693,0.0704956,0.430298,0.0204468,0.0146484,0.0183105,0.00793457,0.00946045,0.0189209,-0.027771,0.0323486,-0.0180054
122,2,0.0228882,0.00549316,0.0161743,2.53113,0.0564575,0.0265503,0.020752,-0.0231934,0.00915527,0.00427246,-0.0204468,0.0183105,0.0439453
122,3,0.105896,0.0308228,0.0305176,3.26202,0.0350952,0.0152588,0.00915527,0.0128174,0.0216675,-0.0256348,-0.055542,0.0152588,-0.0109863
122,4,0.0088501,0.00946045,0.015564,3.30719,0.00915527,0.0341797,0.00274658,0.0247192,0.0231934,-0.00640869,-0.0125122,0.0292969,0.0375366
123,0,-0.0106812,0.0326538,0.0427246,3.27789,0.0238037,0.0402832,0.00701904,-0.00854492,0.0241089,0.0213623,-0.0253296,0.0201416,0.0250244
123,1,0.0280762,0.0613403,0.0259399,3.30566,0.0180054,0.0299072,0.0247192,0.00762939,0.0256348,0.0158691,-0.022583,0.00793457,0.0152588
123,2,0.0274658,0.00671387,0.0384521,3.23944,0.0177002,0.0161743,0.0247192,0.0405884,0.0259399,0.0216675,-0.0283813,0.0259399,0.0436401
123,3,0.0366211,0.0265503,0.0372314,3.15613,0.0238037,0.020752,0.0158691,0.0241089,0.015564,0.00976562,-0.0161743,0.03479,0.0305176
123,4,0.0604248,0.0253296,0.039978,3.0661,0.0231934,0.0161743,0.0341797,-0.0369263,0.0180054,0.00488281,0.00671387,0.0338745,0.0283813
124,0,0.0402832,0.0247192,0.0588989,3.01086,0.0192261,0.020752,0.0442505,0.0140381,0.0140381,-0.00640869,-0.0253296,0.0265503,0.0302124
124,1,0.039978,0.0109863,0.078125,2.9422,0.0140381,0.0244141,0.0128174,0.012207,0.0323486,0.0256348,-0.0241089,0.0723267,0.0341797
124,2,0.0115967,-0.0012207,0.0384521,2.87079,0.0186157,0.0170898,0.0137329,0.0296021,0.00518799,0.0204468,-0.0161743,0.0784302,0.0146484
124,3,0.0259399,0.000915527,0.0515747,2.79663,0.0265503,0.00915527,0.0192261,0.0100708,0.032959,0.0234985,-0.027771,0.0137329,0.00549316
124,4,0.0299072,0.0646973,0.0143433,2.72858,0.0186157,-0.0204468,0.0238037,0.0256348,0.0265503,0.0216675,-0.0259399,0.0494385,0.0302124
125,0,0.0170898,0.022583,0.0170898,2.68707,0.0170898,0.0265503,0.0418091,0.0360107,-0.00183105,-0.0109863,-0.0177002,0.0177002,-0.0152588
125,1,0.0134277,0.0234985,0.0137329,2.62207,0.0164795,0.0213623,0.0210571,0.0186157,0.0134277,0.0466919,-0.0219727,0.0241089,0.0241089
125,2,0.0198364,0.0524902,0.0256348,2.55463,0.0268555,0.0234985,0.0256348,0.0222778,0.0286865,-0.0582886,-0.015564,0.022583,0.0134277
125,3,0.0311279,0.0323486,0.0177002,2.49207,0.0320435,0.0186157,0.00213623,0.0183105,0.0234985,0.0250244,-0.0198364,0.0299072,0.027771
125,4,0.0631714,0.0308228,0.0454712,2.46155,0.0164795,0.0137329,-0.0366211,0.0125122,-0.00823975,0.0256348,-0.0299072,0.0421143,0.0292969
126,0,0.00427246,0.00946045,0.0283813,2.39655,0.0140381,0.0216675,0.038147,0.0271606,-0.00549316,0.0244141,-0.0299072,0.0497437,0.015564
126,1,0.0241089,0.0210571,0.0354004,2.36237,-0.0308228,0.0286865,0.00427246,0.0430298,-0.00976562,0.0149536,-0.0201416,0.0354004,0.0402832
126,2,0.0372314,0.027771,0.0106812,2.29828,0.0213623,0.0259399,0.0247192,0.0143433,0.0265503,0.0363159,-0.0213623,0.0216675,0.0317383
126,3,0.0909424,0.0186157,0.0292969,2.24304,0.03479,0.0405884,0.0192261,0.0286865,0.0088501,0.0234985,-0.0192261,0.0137329,0.0234985
126,4,0.0128174,0.0216675,0.0439453,2.20734,0.010376,0.0738525,0.00793457,0.0326538,-0.0210571,0.0198364,-0.0170898,-0.0177002,0.0439453
127,0,0.0296021,0.00488281,0.0219727,2.16461,0.0372314,0.0177002,0.00213623,0.00152588,0.0463867,0.0717163,-0.015564,0.0180054,0.0201416
127,1,0.0424194,-0.00976562,0.0259399,2.12677,0.0256348,0.012207,0.00976562,0.0180054,0.0402832,0.0262451,-0.0222778,0.0140381,0.0186157
127,2,0.0405884,-0.0296021,0.0259399,2.06818,0.0314331,0.0299072,0.0698853,0.0109863,0.0497437,0.0558472,-0.0180054,0.0256348,0.022583
127,3,-0.0170898,-0.00213623,0.0341797,1.9519,0.0323486,0.03479,-0.0265503,0.0247192,0.0567627,0.0161743,-0.000915527,0.0415039,0.00152588
127,4,0.0112915,0.00305176,0.0454712,1.87927,0.0219727,-0.015564,0.0201416,0.0170898,0.0195312,0.0219727,0.00976562,0.0311279,0.0436401
128,0,0.0509644,0.0427246,0.0296021,0.45929,0.0161743,0.00823975,-0.00579834,-0.0302124,0.0708008,0.0149536,-0.0161743,0.0357056,0.0430298
128,1,0.0271606,0.0384521,0.0183105,-1.38977,0.0308228,0.0256348,-0.000305176,0.0119019,0.0671387,0.0219727,-0.0204468,0.0115967,0.0335693
128,2,0.00579834,-0.0231934,0.0231934,-3.18756,-0.0421143,0.0234985,0.022583,-0.0372314,0.0701904,0.0195312,-0.0344849,0.010376,0.0308228
128,3,0.0479126,0.152283,0.017395,-3.16772,0.0134277,0.0466919,0.0228882,0.0234985,0.0576782,0.00488281,-0.0228882,0.0311279,0.0186157
128,4,0.0344849,0.0473022,0.0311279,-3.17871,0.0357056,0.0134277,0.0131226,0.0140381,0.0622559,0.039978,-0.0256348,0.0189209,0.0268555
129,0,-0.000610352,0.027771,0.0274658,-3.1897,0.0314331,0.00427246,0.0143433,0.0387573,0.0546265,0.0265503,-0.0378418,0.0326538,0.0143433
129,1,0.0384521,0.0680542,0.0323486,-3.17017,0.0274658,-0.0256348,0.0228882,-0.0131226,-0.0253296,0.0320435,-0.0201416,-0.0738525,0.0283813
129,2,0.0292969,0.0604248,0.0112915,-3.16711,0.0231934,0.0326538,0.0158691,0.0891113,0.0134277,0.0283813,-0.0241089,-0.00244141,0.012207
129,3,0.0152588,0.0262451,0.00701904,-3.1723,0.0253296,0.0222778,0.0106812,0.0158691,0.00366211,0.0216675,-0.0164795,0.0137329,0.0100708
129,4,0.0527954,0.0540161,0.0149536,-3.13019,0.0244141,0.0167847,0.0231934,0.0250244,-0.000610352,-0.00457764,-0.0256348,0.0140381,0.0445557
130,0,-0.0195312,0.0326538,0.020752,-2.42554,0.0167847,0.0372314,0.0152588,0.00976562,0.0140381,0.00518799,-0.012207,0.0283813,0.0228882
130,1,0.0674438,0.027771,0.022583,-0.577087,-0.015564,0.0180054,0.0177002,0.0476074,0.0460815,0.0210571,-0.0244141,0.0366211,0.0314331
130,2,0.0241089,0.000915527,0.0180054,1.58844,0.0250244,0.0363159,0.0125122,-0.0314331,0.0762939,0.00274658,0.012207,0.0106812,0.0466919
130,3,0.00762939,-0.0216675,0.0326538,2.79327,0.0286865,0.0115967,0.0274658,0.0167847,0.108948,0.00183105,-0.0186157,-0.0311279,0.017395
130,4,-0.00518799,-0.0109863,0.0231934,2.72705,0.0384521,0.0296021,0.0115967,0.0109863,0.0854492,0.0341797,-0.0326538,0.0302124,0.0396729
131,0,0.0192261,0.0161743,0.0308228,2.68463,0.0262451,0.0213623,0.00152588,-0.00396729,0.0830078,0.00671387,-0.0152588,0.0390625,0.0341797
131,1,0.00671387,0.00488281,0.0360107,2.60803,0.0274658,0.0115967,0.0231934,0.0228882,0.0802612,0.0204468,-0.0396729,0.0131226,0.0244141
131,2,0.00152588,0.0561523,0.0289917,2.56287,0.0469971,0.027771,0.0234985,0.032959,0.0872803,-0.0186157,-0.0396729,0.0259399,0.0311279
131,3,0.0140381,0.0418091,0.0274658,2.46063,0.0357056,0.020752,0.0109863,0.00823975,0.101624,0.0238037,-0.0213623,0.0128174,0.0473022
131,4,0.00457764,0.0244141,0.0439453,2.34955,0.0338745,0.0714111,0.0161743,0.0234985,0.111084,0.00335693,-0.0244141,0.0183105,0.0216675
132,0,0.0201416,0.0210571,0.0335693,1.05286,0.0323486,0.0326538,0.0100708,-0.0115967,0.0338745,0.0198364,-0.0177002,0.0228882,0.0228882
132,1,-0.032959,0.0393677,0.0390625,-0.828247,0.0408936,0.0396729,0.015564,0.015564,-0.0604248,-0.0219727,-0.017395,0.00701904,0.0341797
132,2,0.00213623,0.0588989,0.0302124,-2.88391,0.0228882,0.0250244,0.0180054,0.0286865,-0.0680542,0.0204468,-0.0238037,0.045166,0.0283813
132,3,0.022583,0.00671387,0.0415039,-3.17474,0.0332642,0.0302124,0.0183105,0.012207,-0.161743,0.0125122,-0.0390625,0.0311279,0.0247192
132,4,0.0192261,0.0820923,0.0527954,-3.16589,0.0274658,0.0299072,0.0170898,0.0177002,-0.119019,0.0167847,-0.0222778,0.0302124,0.0341797
133,0,0.00640869,0.0637817,0.0259399,-3.17352,0.0192261,0.0393677,0.0271606,0.0274658,-0.0604248,0.0320435,0.010376,0.0219727,0.0457764
133,1,0.0152588,0.0579834,0.0402832,-3.17596,0.0231934,0.0549316,0.0280762,0.0317383,-0.038147,0.0216675,-0.020752,0.0250244,0.0289917
133,2,0.0088501,0.0161743,0.050354,-3.18054,0.0372314,0.0354004,0.0286865,0.00396729,-0.0149536,0.0491333,-0.00549316,0.0149536,0.00244141
133,3,-0.0738525,0.0128174,0.0372314,-3.17078,0.0350952,0.0500488,0.03479,0.0177002,-0.0125122,0.0189209,0.0256348,-0.0134277,0.0372314
133,4,0.0247192,0.0338745,0.0466919,-3.18695,0.0424194,0.0891113,0.0231934,0.0012207,-0.0231934,-0.00671387,-0.0140381,0.0280762,0.0320435
134,0,0.00518799,0.0445557,0.027771,-2.32635,0.0350952,0.0357056,0.0296021,0.00823975,-0.0476074,-0.0689697,-0.0137329,0.0231934,0.0808716
134,1,0.0149536,0.0305176,0.0527954,-0.529785,0.0250244,0.0344849,0.0296021,-0.00305176,-0.126648,0.0256348,-0.0219727,0.0439453,0.0219727
134,2,-0.0787354,0.0204468,0.0234985,1.62994,0.0341797,0.0500488,0.0274658,0.0210571,-0.114136,0.00823975,0.00183105,0.0088501,0.0271606
134,3,0.0717163,0.0198364,0.0100708,3.05695,0.0195312,0.0469971,0.0299072,0.00549316,-0.111084,0.0161743,-0.00396729,0.0106812,0.0473022
134,4,0.0204468,-0.0411987,0.0250244,3.01361,0.0338745,0.017395,0.0320435,0.00640869,-0.125427,0.0180054,-0.0259399,0.0311279,0.0332642
135,0,0.0088501,0.0115967,0.0799561,2.95654,0.0222778,-0.015564,0.0271606,0.00518799,-0.209045,0.00701904,-0.0143433,0.0634766,0.0314331
135,1,0.0088501,-0.00396729,0.00823975,2.87384,0.0241089,0.0427246,0.0256348,0.0259399,-0.194702,0.022583,-0.0152588,0.0146484,0.0411987
135,2,0.0540161,-0.0106812,0.020752,2.82257,0.0167847,-0.0268555,0.0283813,0.0222778,-0.141602,0.0311279,-0.03479,0.0296021,0.0360107
135,3,0.00640869,0.0271606,0.0576782,2.71027,0.0430298,0.0360107,0.0579834,0.0149536,-0.13916,0.0308228,-0.0183105,0.0231934,0.00793457
135,4,0.017395,-0.00183105,0.0448608,2.59583,0.0363159,-0.00213623,0.0262451,0.0180054,-0.0628662,0.0222778,-0.0231934,0.0549316,0.0265503
136,0,0.0213623,0.0186157,0.0363159,1.50391,0.0372314,0.022583,0.0296021,0.017395,-0.0668335,0.000305176,-0.00915527,0.00793457,0.0222778
136,1,0.0149536,0.038147,0.0286865,-0.330811,-0.0137329,0.0415039,0.0384521,0.0363159,0.0128174,-0.0189209,-0.0180054,0.0195312,0.0302124
136,2,-0.0134277,0.0350952,0.0271606,-2.57324,0.0326538,0.0323486,0.0253296,0.0296021,0.00549316,0.0198364,-0.0140381,0.0457764,0.0234985
136,3,0.00335693,-0.0335693,0.0131226,-3.17566,0.0469971,0.0280762,0.0341797,0.0210571,0.0387573,0.00671387,-0.0299072,0.0289917,0.0357056
136,4,0.0286865,-0.00305176,0.0253296,-3.19061,0.0457764,0.027771,0.0485229,0.0112915,0.0436401,0.0192261,-0.0350952,0.0292969,0.0137329
137,0,-0.00457764,-0.00732422,0.0198364,-3.21106,0.0253296,0.0369263,0.032959,0.0247192,0.0460815,0.0302124,-0.000915527,0.0164795,0.0192261
137,1,0.0338745,0.0152588,0.0299072,-3.1781,0.0442505,0.0296021,0.0363159,0.0650024,0.0289917,0.0299072,0.00640869,0.0341797,0.0317383
137,2,0.00793457,0.0192261,0.038147,-3.19214,0.0219727,0.0250244,0.0466919,0.0280762,0.050354,0.0167847,-0.043335,0.0231934,0.0222778
137,3,-0.0100708,-0.00610352,0.032959,-3.1723,0.0161743,0.0341797,0.0369263,0.0308228,0.0549316,0.0326538,-0.0231934,0.0280762,0.0305176
137,4,0.0112915,0.00976562,0.017395,-3.17902,0.032959,0.0259399,0.0442505,0.00335693,0.0592041,0.00579834,-0.0180054,0.0195312,0.050354
138,0,0.0265503,-0.00274658,0.0241089,-2.58667,0.0408936,0.0524902,0.00976562,0.0497437,0.0906372,0.00701904,-0.0109863,0.0177002,0.067749
138,1,0.00274658,0.0305176,0.0579834,-0.851746,0.0384521,0.0436401,0.0424194,0.022583,0.0384521,0.0216675,-0.00823975,-0.00579834,0.0192261
138,2,0.0012207,0.0402832,0.0189209,1.27197,0.0100708,0.0180054,0.0189209,-0.0259399,0.0415039,0.0405884,-0.0112915,0.0210571,0.0354004
138,3,0.0131226,-0.00488281,0.0238037,2.85889,0.0488281,0.0244141,0.0177002,0.0354004,0.0500488,0.0360107,-0.0149536,0.0164795,0.043335
138,4,0.0112915,0.0088501,0.0228882,3.28644,0.0494385,0.0308228,-0.0317383,0.0268555,0.0439453,0.0219727,-0.0262451,0.0088501,0.0177002
139,0,0.032959,-0.00579834,0.022583,3.14667,0.0595093,0.039978,0.0415039,-0.022583,0.0469971,0.00427246,0.00457764,0.0167847,0.0149536
139,1,0.0192261,0.0311279,0.0189209,3.05634,0.0314331,0.0485229,0.0265503,0.0241089,0.0762939,0.00732422,-0.0189209,0.010376,0.012207
139,2,0.0186157,0.0372314,0.0274658,2.95044,0.0445557,0.0231934,0.0192261,0.0360107,0.0701904,0.0701904,-0.0198364,0.00579834,0.00762939
139,3,0.0128174,0.0228882,0.0268555,2.90283,0.0296021,0.0384521,0.0369263,0.0253296,0.0540161,0.0198364,-0.0115967,-0.0390625,0.0164795
139,4,-0.0106812,-0.000305176,0.0912476,2.81158,0.038147,0.0537109,0.00457764,0.0152588,0.0491333,0.0396729,-0.0128174,0.0201416,0.0302124
140,0,0.00946045,-0.032959,0.00823975,1.88843,0.0332642,0.027771,0.0311279,0.0354004,0.0512695,0.0231934,-0.00335693,0.0320435,0.0250244
140,1,0.0161743,0.000915527,0.0183105,-0.0320435,0.0436401,0.0396729,0.0292969,0.0198364,0.0482178,0.0280762,-0.0189209,0.00396729,-0.0100708
140,2,0.020752,0.0204468,0.0231934,-2.24518,0.0479126,0.0375366,0.0280762,0.00946045,0.0653076,0.0494385,-0.00762939,0.0106812,0.0109863
140,3,0.00823975,0.0396729,0.00427246,-3.13263,0.0366211,0.0360107,0.0354004,0.03479,0.0799561,0.0515747,-0.0195312,0.00518799,0.0274658
140,4,0.00793457,0.0341797,0.0262451,-3.17871,0.0497437,0.0238037,0.0271606,0.00305176,0.0692749,0.039978,-0.0299072,0.0241089,0.0125122
141,0,0.0125122,0.0158691,0.0183105,-3.15918,0.0415039,0.015564,0.0354004,0.0411987,0.0601196,0.00213623,-0.0106812,0.0186157,0.032959
141,1,0.0274658,0.00183105,0.0115967,-3.18268,0.0442505,0.0167847,0.0369263,0.0216675,0.0656128,0.00701904,-0.0350952,0.0088501,-0.0128174
141,2,0.0305176,0.0292969,0.0210571,-3.1958,0.012207,0.022583,0.0341797,0.0222778,0.055542,0.0344849,-0.0119019,0.0183105,0.0186157
141,3,0.0247192,0.0140381,0,-3.09967,0.0466919,0.0286865,0.0872803,0.0137329,0.0811768,0.0701904,-0.0119019,0.00823975,0.00976562
141,4,0.0341797,0.0613403,0.020752,-3.02551,0.032959,0.0253296,0.0262451,0.0231934,0.0592041,0.0204468,-0.0262451,0.00701904,0.0180054
142,0,0.0323486,0.0183105,0.0149536,-2.56561,0.00549316,0.0265503,0.0305176,0.0210571,0.0778198,0.0338745,-0.0149536,0.0134277,0.0012207
142,1,0.0137329,0.0259399,0.0238037,-0.770264,0.0222778,0.0088501,0.0289917,0.0228882,0.0457764,0.0137329,-0.0198364,-0.0296021,0.00915527
142,2,0.0222778,-0.0119019,0.0323486,1.33514,0.0302124,0.0595093,0.0268555,0.0219727,-0.0149536,0.0424194,-0.0088501,0.0137329,0.0106812
142,3,-0.000610352,0.0137329,0.0167847,3.19092,0.0302124,0.0387573,0.03479,0.0299072,0.0543213,0.0299072,-0.0137329,-0.000915527,0.00305176
142,4,0.0323486,-0.000305176,-0.00976562,3.29773,0.0354004,0.102844,0.0378418,0.0308228,-0.00305176,0.0488281,-0.0210571,-0.00244141,0.00579834
143,0,0.0430298,0.00915527,0.00366211,3.21655,0.0204468,0.0402832,0.0457764,0.0231934,0.0283813,0.00396729,-0.0152588,0.00823975,0.0253296
143,1,0.0161743,0.00854492,0.00854492,3.15063,0.0244141,0.043335,0.0363159,0.020752,0.0537109,0.00152588,-0.00732422,0.0286865,0.0167847
143,2,0.0152588,-0.0109863,0.0228882,3.08624,0.0289917,0.043335,0.0213623,0.0180054,0.0466919,0.0247192,-0.022583,0.0219727,0.017395
143,3,0.00854492,-0.0195312,0.0570679,2.99133,0.0167847,-0.0299072,0.0234985,0.010376,0.0744629,0.0106812,-0.0152588,0.0128174,0.0259399
143,4,-0.00366211,0.0384521,0.022583,2.87933,-0.0189209,0.0253296,0.0360107,0.0283813,0.0460815,0.0250244,-0.0216675,0.000610352,0.0128174
144,0,0.0106812,-0.022583,0.0286865,2.2757,0.0326538,-0.00823975,0.0408936,0.0170898,-0.0134277,0.0134277,-0.0219727,0.0238037,0.0396729
144,1,0.0262451,-0.0112915,0.0289917,0.462952,0.0112915,0.0250244,0.0262451,0.0292969,0.0250244,0.0158691,-0.0271606,0.0253296,0.0143433
144,2,0.0161743,-0.0335693,-0.0100708,-1.78467,0.0289917,0.0527954,0.0427246,0.027771,0.0140381,0.03479,-0.0088501,0.0149536,0.0177002
144,3,0.0204468,-0.015564,0.0253296,-3.22021,0.0280762,0.0305176,0.0418091,0.0299072,0.00976562,0.0256348,-0.020752,0.0186157,0.0228882
144,4,0.0231934,-0.0244141,0.0152588,-3.19244,0.0405884,0.0390625,0.0469971,0.0427246,0.0213623,0.0552368,-0.0283813,0.0244141,0.0125122
145,0,0.0115967,0.0213623,0.0219727,-3.24066,0.0311279,0.020752,0.0405884,0.0189209,-0.00457764,0.0149536,-0.0152588,0.0189209,0.0363159
145,1,0.00762939,0.0192261,0.0143433,-3.19519,0.0253296,0.0335693,0.0357056,0.0317383,0.0640869,0.0390625,-0.0283813,0.0369263,0.0216675
145,2,0.00610352,0.0238037,0.0152588,-3.18542,0.00396729,0.00732422,0.0192261,0.022583,0.0183105,0.032959,-0.0241089,0.0213623,0.00457764
145,3,0.0637817,0.0219727,0.00518799,-3.1015,0.00915527,0.0253296,0.0344849,0.0268555,0.0494385,0.0317383,-0.0228882,0.0256348,-0.00915527
145,4,0.0360107,0.0509644,0.010376,-2.98645,0.0140381,0.0357056,0.0289917,0.0372314,0.0604248,0.0454712,-0.0161743,0.0332642,-0.010376
146,0,0.0195312,0.0494385,0.00976562,-2.67853,0.0213623,0.050354,0.0390625,0.0161743,0.0515747,0.0140381,-0.0274658,0.0280762,0.0228882
146,1,0.00701904,0.0152588,0.0183105,-1.02661,0.015564,0.0390625,0.0244141,0.0253296,0.0723267,0.0164795,-0.0387573,0.0231934,0.0262451
146,2,0.00244141,0.0637817,0.0201416,1.2323,-0.0286865,0.03479,0.03479,0.039978,0.0537109,0.0204468,-0.0238037,0.0161743,0.00946045
146,3,0.0283813,0.00946045,0.0262451,3.23242,0.015564,0.0357056,0.0338745,0.0222778,0.0396729,0.0256348,-0.0234985,-0.00518799,0.0222778
146,4,0.00671387,-0.0106812,0.0149536,3.29498,0.0213623,0.0341797,0.0466919,0.0457764,0.043335,0.0170898,-0.027771,0.0088501,-0.00732422
147,0,0.020752,0.0164795,0.0222778,3.30963,0.00244141,0.0286865,0.0296021,0.0335693,0.0494385,0.0244141,-0.0222778,0.0134277,0.0253296
147,1,0.0445557,-0.00183105,-0.0408936,3.20892,0.0164795,0.0335693,0.0357056,0.0296021,-0.00244141,-0.0131226,-0.0268555,0.0201416,-0.0262451
147,2,0.0228882,0.00946045,0.00793457,3.13599,0.00701904,0.0256348,0.0274658,0.0283813,0.0241089,0.0134277,-0.0109863,0.00305176,0.0292969
147,3,0.00152588,-0.0106812,-0.0109863,3.11005,0.00854492,0.0195312,0.0274658,0.0201416,0.0378418,-0.0149536,-0.0149536,-0.00701904,-0.0323486
147,4,0.0210571,0.0396729,0.00518799,2.94312,0.00305176,0.0308228,0.0305176,0.0241089,0.0491333,0.0335693,-0.027771,0.00671387,0.0247192
148,0,0.0180054,0.0363159,-0.000610352,2.46094,0.0131226,0.0253296,0.0360107,0.0500488,0.0299072,0.0158691,0.0119019,0.012207,0.00335693
148,1,0.0125122,0.00274658,0.00457764,0.618896,0.0140381,0.0164795,0.0317383,0.0268555,0.0415039,0.0247192,-0.0177002,0.0183105,0.0119019
148,2,0.0567627,0.0210571,0.00518799,-1.65619,0.0149536,0.0241089,-0.0402832,0.043335,0.0482178,0.00946045,-0.0274658,0.00732422,0.0350952
148,3,0.0247192,0.0494385,0.00366211,-3.18848,0.0164795,-0.0344849,0.0241089,0.0387573,-0.0109863,0.0164795,-0.0369263,0.0708008,0.0305176
148,4,0.0357056,0.0735474,0.032959,-3.18329,0.00183105,0.0244141,0.0274658,0.0387573,0.0445557,0.0405884,-0.0256348,0.0357056,0.0170898
149,0,0.0299072,-0.0134277,0.020752,-3.20801,0.00793457,0.0256348,0.038147,0.0326538,0.0332642,-0.017395,-0.0311279,0.022583,-0.0314331
149,1,0.0234985,-0.00213623,0.0158691,-3.19458,0.0137329,0.0421143,0.0231934,0.0363159,0.0354004,0.0326538,-0.0186157,0.0170898,0.114746
149,2,0.0308228,-0.0115967,0.0283813,-3.15063,0.0387573,0.0326538,0.0378418,0.0393677,0.0265503,0.0613403,-0.0366211,0.00488281,0.0473022
149,3,-0.000915527,0.00427246,-0.0119019,-3.06366,0.00488281,0.0183105,0.0186157,0.0445557,0.00854492,0.0219727,-0.0286865,0.027771,0.0119019
149,4,0.0115967,-0.00305176,-0.022583,-2.95349,0.0100708,0.0396729,0.0247192,0.0198364,0.0546265,0.022583,-0.043335,-0.0198364,0.00946045
150,0,0.0323486,0.0259399,-0.00427246,-2.75421,0.0128174,0.0869751,0.0317383,0.0305176,0.0616455,0.0198364,-0.0311279,0.0161743,0.0146484
150,1,0.0292969,-0.0222778,-0.0131226,-1.2204,0.0332642,0.027771,0.0344849,0.0790405,0.0369263,0.0292969,-0.0222778,0.0158691,0.0152588
150,2,0.0228882,0.0152588,0.00152588,0.903625,-0.0305176,0.032959,0.0332642,0.0708008,0.0314331,0.0137329,-0.0323486,-0.0088501,0.0088501
150,3,0.0234985,0.00701904,0.00946045,2.93793,0.0204468,0.0128174,0.0280762,0.0540161,0.0415039,0.012207,-0.0515747,0.0265503,0.0119019
150,4,0.0256348,0.0100708,-0.000305176,3.29407,0.0732422,0.022583,0.0305176,0.0280762,0.0271606,0.0500488,-0.027771,0.0204468,0.00457764
151,0,0.0265503,0.00152588,0.012207,3.28583,0.00946045,0.0164795,0.0228882,0.0262451,0.0338745,0.0137329,-0.0216675,0.0387573,0.0189209
151,1,0.0289917,-0.00762939,-0.00305176,3.25623,0.00946045,0.0238037,0.010376,0.0213623,0.0448608,0.0341797,-0.0268555,0.015564,0.0149536
151,2,0.0210571,-0.0366211,0.0134277,3.19916,0.00610352,0.0619507,0.0204468,0.0360107,0.0765991,0.0286865,-0.0244141,0.00366211,0.0137329
151,3,0.0305176,0.0231934,0.0137329,3.10211,0.000915527,0.0241089,0.0265503,0.0210571,0.0656128,0.0363159,-0.0286865,0.0213623,0.0112915
151,4,-0.0152588,0.0125122,-0.0250244,3.0072,0.0201416,0.0256348,0.0299072,0.0268555,0.0772095,-0.0247192,-0.0238037,0.00549316,0.0210571
152,0,0.0338745,0.027771,0.055542,2.65045,-0.0012207,0.0299072,0.0219727,0.043335,0.057373,0.00976562,-0.0372314,0.00427246,0.015564
152,1,-0.0216675,0.00366211,0.0613403,1.10168,0.0219727,0.0360107,0.0219727,0.0317383,0.0469971,0.0363159,-0.0195312,0.017395,0.0195312
152,2,0.0280762,0.00579834,0.103149,-1.01898,0.062561,0.000915527,0.0250244,0.0378418,0.0317383,0.0164795,-0.0335693,0.0280762,0.0143433
152,3,0.0183105,-0.00305176,0.10376,-3.02094,0.0454712,0.0170898,0.0170898,0.0466919,0.0335693,0.0286865,-0.0524902,0.0350952,0.0222778
152,4,0.032959,-0.00183105,-0.0259399,-3.20557,-0.00305176,0.0161743,-0.00610352,0.0778198,0.0460815,0.0372314,-0.0216675,0.0146484,0.0271606
153,0,0.0335693,0.0259399,-0.062561,-3.19916,0.0271606,-0.0512695,0.0164795,0.0259399,0.0683594,0.0360107,-0.0384521,0.0106812,0.0390625
153,1,0.0326538,0.00213623,-0.00213623,-3.18848,0.0195312,0.00457764,0.0299072,0.0332642,0.0393677,0.0271606,-0.0561523,0.032959,0.0283813
153,2,0.0296021,0.0805664,-0.0231934,-3.15674,0.0134277,0.00488281,0.03479,0.0296021,-0.0259399,0.032959,-0.0411987,0.0115967,0.022583
153,3,0.0158691,0.0366211,-0.00671387,-3.06702,0.00396729,0.0170898,0.0231934,0.0219727,0.0665283,0.0411987,-0.0396729,0.0250244,0.0332642
153,4,0.043335,0.0439453,-0.00793457,-2.97394,-0.0112915,0.00457764,0.0341797,0.0759888,0.0213623,0.0238037,-0.0363159,0.0183105,0.0314331
154,0,0.0274658,0.0308228,-0.0012207,-2.79816,0.00366211,0.00946045,0.0219727,0.0241089,0.0213623,0.0518799,-0.0320435,0.0219727,0.0250244
154,1,0.022583,0.0375366,0.0109863,-1.21887,0.00427246,0.0311279,0.0213623,0.0241089,0.0186157,0.0192261,-0.0344849,0.0228882,0.0189209
154,2,0.0518799,0.00762939,-0.00488281,0.926819,0.00823975,0.00640869,0.0112915,0.0244141,0.0485229,0.00152588,-0.0311279,0.0134277,-0.0354004
154,3,0.0280762,0.00274658,0.00183105,3.04749,0.0292969,0.0140381,0.0213623,0.039978,0.020752,0.0256348,-0.0619507,0.0177002,0.0241089
154,4,0.0662231,0.0311279,-0.0012207,3.29498,0.0146484,0.0198364,0.0244141,0.0375366,0.0405884,0.0408936,-0.0366211,0.0140381,0.027771
155,0,0.0192261,0.0296021,0.015564,3.302,0.0177002,0.0231934,0.0360107,0.0170898,0.0494385,0.0201416,-0.00854492,0.0247192,0.0238037
155,1,0.0268555,0.0491333,-0.00976562,3.27362,0.0778198,0.0167847,0.0170898,0.0817871,0.062561,0.0222778,-0.0332642,0.0308228,0.0289917
155,2,0.0167847,-0.0128174,0.0119019,3.16345,0.0283813,0.0106812,-0.0314331,0.0570679,0.0311279,-0.0500488,-0.0485229,0.022583,0.0656128
155,3,0.0186157,0.0305176,0.017395,3.11676,0.0180054,0.0317383,0.0259399,0.0238037,0.010376,0.0210571,-0.0338745,0.0537109,0.0131226
155,4,0.0292969,0.0189209,-0.0213623,3.01331,0.0180054,-0.0106812,0.0259399,0.0152588,0.0302124,0.0250244,-0.0299072,0.0170898,0.0253296
156,0,0.0250244,0.0192261,0.0299072,2.84149,-0.0012207,0.0125122,0.0183105,0.0531006,-0.00793457,0.0305176,-0.0289917,0.0234985,0.0238037
156,1,0.0463867,0.0271606,0.0204468,1.17157,0.0259399,0.0177002,0.0805664,0.0302124,0.0421143,-0.0311279,-0.0241089,0.0115967,0.0540161
156,2,0.0241089,0.0405884,0.0228882,-0.931396,0.0115967,0.0106812,-0.0210571,0.0238037,0.0177002,0.0650024,-0.0360107,0.0201416,0.0195312
156,3,0.00152588,0.0396729,0.0192261,-3.04932,0.0320435,0.0112915,0.020752,0.088501,0.0320435,0.0125122,0.015564,0.0360107,0.0476074
156,4,0.0289917,0.0286865,0.0253296,-3.17078,0.0292969,0.0161743,0.0274658,0.0238037,0.0384521,0.0256348,-0.0320435,0.0375366,0.0390625
157,0,0.0698853,0.0518799,0.0332642,-3.18115,0.00488281,0.0115967,0.0247192,0.0262451,0.0527954,0.0177002,-0.071106,0.000915527,0.0186157
157,1,0.0457764,0.0402832,0.0216675,-3.18054,0.0256348,0.00579834,0.0125122,0.0177002,0.0366211,0.022583,-0.0354004,0.0476074,0.03479
157,2,0.0265503,0.0567627,0.0244141,-3.15765,0.00946045,0.0418091,0.0299072,0.0180054,-0.0164795,0.00152588,-0.0332642,0.0396729,0.0341797
157,3,0.038147,0.0250244,0.0100708,-3.06091,0.00610352,0.0241089,0.027771,0.0320435,0.017395,0.00579834,-0.0231934,0.0100708,0.0302124
157,4,0.0378418,0.136414,0.0506592,-3.0011,0.0979614,0.0112915,0.032959,0.0796509,0.0411987,0.00488281,-0.0421143,0.0317383,0.0256348
158,0,0.0643921,0.0726318,0.0411987,-2.83447,0.020752,-0.00457764,0.0350952,0.0146484,0.0509644,0.0161743,-0.0604248,0.0289917,0.0302124
158,1,0.0350952,0.0338745,0.00274658,-1.45874,0.0289917,0.0112915,0.0283813,0.0192261,0.0341797,0,-0.0393677,0.0482178,0.0378418
158,2,0.0274658,0.0415039,0.038147,0.640564,0.015564,0.0125122,0.0311279,0.0271606,0.022583,0.0326538,-0.0302124,0.0161743,0.0140381
158,3,0.0201416,0.0488281,0.020752,2.81616,0.00427246,-0.043335,0.0320435,0.0201416,-0.00305176,-0.0137329,-0.0311279,0.055542,0.00213623
158,4,0.0335693,-0.00823975,0.0360107,3.30353,0.0238037,0.00823975,0.017395,0.0357056,0.027771,0.0836182,-0.0247192,0.0317383,0.0643921
159,0,0.0543213,0.0497437,0.0616455,3.34167,0.0128174,0.0195312,0.0271606,0.0314331,0.0323486,0.0186157,-0.0350952,0.0366211,0.010376
159,1,0.0405884,0.0430298,0.0418091,3.35938,0.0213623,0.0177002,-0.0146484,0.0186157,0.0247192,0.0268555,-0.0216675,0.020752,0.03479
159,2,0.0765991,0.00976562,0.0308228,3.19214,-0.000610352,0.0109863,-0.0317383,0.0186157,0.0283813,0.0335693,-0.00549316,0.0192261,0.0485229
159,3,0.00213623,0.0112915,0.0561523,3.13477,0.0088501,0.0164795,0.0189209,0.012207,0.038147,0.00579834,-0.0296021,0.0234985,0.0109863
159,4,0.0335693,-0.0119019,0.0396729,3.01605,-0.00335693,0.017395,0.0317383,0.0195312,0.0469971,0.0253296,-0.0357056,0.0271606,0.0363159
160,0,0.0201416,0.027771,0.0402832,2.83539,0.0222778,0.022583,0.0140381,0.0158691,0.0158691,0.0167847,-0.0216675,0.0164795,0.0219727
160,1,0.0390625,0.0354004,0.0280762,1.40625,0.0256348,0.00396729,0.010376,0.0112915,0.00946045,0.0228882,-0.0375366,0.0366211,0.0357056
160,2,0.0442505,0.0228882,-0.0424194,-0.761108,0.00823975,0.0408936,0.0335693,0.0537109,0.0485229,0.00946045,-0.0326538,0.0411987,0.0357056
160,3,0.0115967,0.020752,0.0521851,-2.73529,0.0134277,0.0161743,0.0222778,0.0164795,0.0228882,0.0204468,-0.0338745,0.0164795,-0.0323486
160,4,0.00732422,0.0354004,0.0299072,-3.16254,0.012207,0.0320435,0.022583,0.0299072,0.0234985,0.0311279,-0.0350952,0.0177002,0.0286865
161,0,0.0289917,0.0708008,0.0244141,-3.17352,0.00396729,0.0228882,0.0189209,0.0140381,0.0238037,0.0189209,-0.0402832,0.0308228,0.045166
161,1,0.0494385,0.0454712,0.0479126,-3.17871,0.00610352,0.0259399,0.0204468,0.0280762,0.0213623,0.0411987,-0.0408936,0.0231934,-0.0106812
161,2,0.0360107,0.0518799,0.022583,-3.15125,0.0442505,0.0140381,0.0219727,-0.00823975,0.00640869,0.017395,-0.0344849,0.0616455,0.0204468
161,3,0.0302124,0.0857544,0.0497437,-3.07251,0.00854492,0.0274658,0.0204468,0.00183105,0.0335693,0.0308228,-0.0149536,0.0244141,0.0317383
161,4,0.0286865,0.0540161,0.0622559,-2.98401,0.0195312,0.0180054,0.0137329,0.0198364,0.0283813,0.0292969,-0.0363159,0.0296021,0.0723267
162,0,-0.0115967,0.020752,0.0378418,-2.84241,0.0296021,0.0228882,0.0579834,0.0164795,0.0259399,0.0662231,-0.0628662,0.0415039,-0.0332642
162,1,0.0482178,0.0540161,0.0552368,-1.62903,0.00976562,0.0137329,0.0927734,0.0231934,0.00732422,-0.0332642,-0.0418091,0.0228882,0.027771
162,2,0.0393677,0.088501,0.0564575,0.445557,0.0231934,0.00457764,0.0167847,0.0128174,0.0152588,0.0500488,-0.0317383,0.032959,0.0708008
162,3,-0.0360107,0.0271606,0.0509644,2.7298,0.00854492,0.0292969,0.0204468,0.0128174,0.0128174,0.000305176,-0.022583,0.0262451,0.0238037
162,4,0.0296021,0.0442505,0.0540161,3.31726,0.0186157,0.0311279,0.020752,-0.0161743,0.0115967,0.022583,-0.0305176,0.0354004,0.0231934
163,0,0.0360107,0.0201416,0.0378418,3.32123,0.00213623,0.0473022,0.0204468,0.0131226,0.0427246,0.0192261,-0.0323486,0.0311279,0.0302124
163,1,0.0357056,0.012207,0.0180054,3.28369,0.0192261,0.0238037,-0.0146484,0.0384521,0.0289917,0.0234985,-0.0375366,0.0271606,0.0332642
163,2,0.032959,0.0204468,0.0280762,3.24371,0.0128174,0.0222778,0.015564,0.0195312,0.00732422,0.0366211,-0.0283813,0.0384521,-0.010376
163,3,0.0265503,0.0280762,0.0466919,3.14423,0.0186157,0.027771,0.0311279,0.0164795,0.0112915,0.0289917,-0.0195312,0.0131226,0.0180054
163,4,0.0170898,0.0354004,0.0332642,3.03223,0.0180054,0.022583,0.0183105,0.00518799,0.0137329,0.0170898,-0.0289917,-0.010376,0.0314331
164,0,0.0299072,0.0268555,0.0802612,2.9187,-0.00244141,0.0396729,0.00305176,-0.00366211,0.0231934,0.0448608,-0.00976562,0.0283813,0.0457764
164,1,0.0289917,0.0653076,0.0588989,1.72729,0.0134277,0.0332642,0.0228882,-0.00488281,0.0283813,0.027771,-0.0369263,0.00610352,0.0244141
164,2,-0.00366211,0.0421143,0.0442505,-0.287476,0.0268555,0.0289917,0.0897217,0.0198364,0.0311279,-0.0244141,-0.0299072,0.0222778,0.0692749
164,3,0.0482178,0.0189209,0.0262451,-2.4707,0.00579834,0.00976562,0.0259399,0.0170898,0.00152588,0.0219727,-0.0335693,0.0405884,0.0564575
164,4,0.0390625,-0.00457764,0.0164795,-3.15002,0.0311279,0.0387573,0.0134277,0.0112915,0.0292969,0.0250244,-0.0222778,0.0299072,0.0384521
165,0,0.0326538,0.0115967,-0.00579834,-3.18878,0.022583,0.0219727,0.0634766,0.020752,0.0274658,0.0405884,-0.0265503,0.0354004,-0.00366211
165,1,0.022583,0.027771,0.0326538,-3.15186,0.0323486,0.0436401,0.0271606,0.0244141,0.0088501,0.0701904,-0.0119019,0.0354004,0.0210571
165,2,0.0320435,0.0500488,0.0366211,-3.15857,0.0256348,0.0109863,0.00518799,0.0238037,0.0390625,0.000610352,-0.0384521,0.000915527,0.0213623
165,3,0.0357056,0.00152588,0.00976562,-3.08258,0.0238037,0.0213623,0.0363159,0.0375366,0.0170898,0.0344849,-0.0448608,0.0335693,0.0280762
165,4,0.0228882,0.00976562,0.0387573,-2.99103,-0.0354004,0.0326538,0.0314331,0.0106812,0.0219727,0.00976562,-0.0283813,0.0228882,0.0210571
166,0,0.0445557,-0.0143433,0.0360107,-2.94983,0.0201416,0.022583,0.0476074,0.00579834,-0.00793457,0.0323486,-0.0192261,0.0482178,0.0320435
166,1,0.0274658,0.00610352,0.0588989,-1.9162,0.0241089,0.0228882,0.0210571,0.03479,0.0280762,0.0326538,-0.0335693,0.0323486,0.0396729
166,2,0.0158691,-0.000305176,0.0396729,0.0643921,0.0332642,0.00915527,0.0314331,0.0134277,0.0234985,0.0350952,-0.0299072,0.0363159,0.0341797
166,3,0.0479126,-0.050354,0.0741577,2.3114,0.0350952,0.00701904,0.0262451,0.0152588,0.0119019,0.017395,-0.0393677,0.0543213,0.0457764
166,4,0.0338745,-0.00457764,0.0518799,3.31421,0.0180054,0.0119019,0.0344849,0.00854492,0.00701904,-0.00305176,-0.0259399,0.0387573,0.0100708
167,0,0.0274658,0.0320435,0.0384521,3.30902,0.0201416,0.0228882,0.0646973,0.012207,0.012207,0.0549316,-0.0302124,0.0366211,0.0482178
167,1,0.0180054,0.020752,0.0546265,3.31726,0.0262451,0.0265503,0.0317383,0.0143433,0.0100708,0.0180054,-0.0390625,-0.00671387,0.020752
167,2,0.0201416,0.0482178,0.015564,3.2547,0.0378418,0.0247192,-0.0253296,0.0332642,0.0158691,-0.0262451,-0.0384521,0.0238037,0.0350952
167,3,0.0262451,0.0674438,0.0308228,3.15155,0.0305176,-0.00183105,0.0262451,0.0158691,-0.0222778,0.0265503,-0.0375366,0.0186157,0.0390625
167,4,0.0198364,0.100098,0.0537109,3.03925,0.0274658,0.0244141,0.0186157,0.0180054,0.0228882,0.012207,-0.0341797,0.0323486,0.0402832
168,0,0.022583,0.0341797,0.038147,2.93823,0.0265503,0.0244141,0.0119019,0.0335693,0.0222778,0.0210571,-0.0372314,0.0317383,0.0360107
168,1,0.0308228,0.101318,0.0320435,1.85944,0.0170898,0.0274658,0.0161743,0.0222778,0.0192261,0.0274658,-0.0378418,0.0323486,0.0286865
168,2,0.0354004,0.122681,0.022583,-0.153809,-0.0164795,0.0177002,0.0161743,0.072937,0.0106812,0.0231934,-0.0234985,0.0183105,0.0109863
168,3,0.0180054,0.0674438,0.0683594,-2.3642,0.0375366,-0.0335693,0.0125122,0.0204468,-0.0143433,0.0192261,-0.0296021,0.0491333,0.0262451
168,4,0.0341797,0.0628662,0.0274658,-3.17535,0.0531006,0.0146484,0.0198364,0.0189209,0.0152588,0.0421143,-0.0335693,0.0213623,0.0274658
169,0,0.0357056,0.0552368,0.0393677,-3.1781,0.027771,0.0250244,0.0271606,0.00976562,0.0592041,0.0360107,-0.0271606,-0.00915527,0.043335
169,1,0.0283813,0.0689697,0.020752,-3.17993,0.015564,0.0268555,0.0250244,0.0204468,0.0360107,0.0213623,-0.0396729,0.038147,0.0540161
169,2,0.0259399,0.0384521,0.00915527,-3.15674,0.0299072,0.0143433,0.0170898,0.0088501,0.0494385,-0.00854492,-0.0161743,0.0323486,0.0524902
169,3,0.0134277,0.0375366,0.0280762,-3.07892,-0.010376,0.0115967,0.0180054,0.0646973,0.0488281,0.00701904,-0.0253296,0.0134277,0.0119019
169,4,0.020752,0.0308228,0.0369263,-2.97852,0.032959,0.0149536,-0.00549316,0.0195312,0.0476074,0.0485229,-0.0216675,0.0430298,0.0357056
170,0,0.0219727,0.0292969,0.0201416,-2.88269,0.0396729,0.00701904,0.0335693,-0.0305176,0.027771,0.0146484,0.00946045,0.0210571,0.0332642
170,1,0.0308228,0.0286865,0.0491333,-2.16858,0.0283813,0.0259399,0.0241089,0.0134277,0.0479126,0.00427246,-0.0286865,0.032959,0.0604248
170,2,0.0250244,0.00762939,0.0521851,-0.374146,0.0344849,0.0219727,0.0186157,0.0128174,0.0341797,0.0366211,-0.0088501,0.0421143,0.0164795
170,3,0.0250244,0.00274658,0.0436401,1.94885,0.0289917,0.0134277,0.0222778,0.00244141,0.0457764,0.0100708,-0.0210571,0.0210571,0.0149536
170,4,0.0183105,-0.00335693,0.0265503,3.31665,0.0271606,-0.0469971,0.0158691,0.0198364,-0.0228882,0.00671387,-0.0344849,0.0292969,0.0424194
171,0,0.0250244,-0.0106812,0.0488281,3.31665,0.0350952,0.0140381,0.0170898,0.00915527,0.0115967,0.0442505,-0.0183105,0.0128174,0.0305176
171,1,0.0128174,-0.055542,0.0238037,3.29956,0.0204468,0.0125122,0.0344849,0.020752,0.0137329,0,-0.0186157,0.0299072,0.0338745
171,2,0.0189209,-0.027771,0.0546265,3.27087,0.0823975,0.0305176,0.0323486,0.0442505,0.00305176,0.0308228,-0.0262451,0.0280762,0.0390625
171,3,0.0335693,-0.0708008,0.0384521,3.20435,0.0372314,0.0106812,0.0256348,0.0201416,-0.0238037,-0.00427246,-0.0296021,0.0372314,0.0479126
171,4,0.0244141,-0.00732422,0.027771,3.09448,0.0405884,0.0234985,0.0253296,0.0177002,-0.0582886,0.0219727,-0.0366211,0.0402832,0.0421143
172,0,0.0363159,0.0305176,0.0323486,2.96875,0.0231934,0.0152588,0.03479,0.0164795,-0.0430298,-0.00274658,-0.0265503,0.0238037,0.0189209
172,1,0.0363159,0.0259399,0.0274658,2.08405,0.0308228,0.0305176,0.0219727,0.000305176,-0.0286865,0.0250244,0.00671387,0.00823975,0.0442505
172,2,0.00732422,0.0796509,0.0213623,0.256348,0.0332642,0.0268555,0.0323486,0.00305176,-0.032959,0.0125122,-0.0201416,0.0463867,0.0216675
172,3,-0.0231934,0.107117,0.0292969,-2.08344,0.0384521,0.0195312,0.00823975,0.0119019,-0.0088501,0.0128174,-0.0143433,0.0335693,0.0283813
172,4,0.0387573,0.0640869,0.0228882,-3.18573,0.0274658,0.00305176,0.0222778,0.012207,0.0161743,0.0234985,-0.0393677,0.0332642,0.0378418
173,0,0.0323486,0.0601196,0.0210571,-3.25165,0.0521851,0.0231934,-0.0143433,0.0143433,0.00671387,0.0665283,-0.0234985,0.022583,0.0427246
173,1,0.0204468,0.020752,0.00610352,-3.17566,0.0372314,0.0332642,0.0262451,0.010376,0.0186157,-0.0115967,-0.0262451,0.022583,0.0271606
173,2,0.00274658,0.0479126,0.0717163,-3.14789,0.0280762,-0.0335693,0.0363159,0.0192261,0.0366211,0.0274658,-0.0088501,0.0137329,0.043335
173,3,0.0274658,0.0387573,0.0708008,-3.09052,0.0357056,0.0146484,0.0177002,0.0192261,0.00823975,-0.000305176,-0.0360107,0.0390625,0.0384521
173,4,-0.0350952,0.0524902,0.0631714,-2.99622,0.00366211,0.0326538,0.0149536,0.0201416,0.0152588,0.057373,-0.0335693,0.0292969,0.0283813
174,0,0.0125122,0.0296021,0.0228882,-2.92877,0.0256348,0.0372314,0.0283813,0.00854492,-0.00549316,0.0872803,-0.0283813,0.0115967,-0.00732422
174,1,0.0491333,0.0363159,0.0271606,-2.86407,0.0296021,0.022583,0.0256348,0.0186157,0.0152588,0.0494385,-0.0244141,0.0186157,0.0515747
174,2,0.017395,0.00823975,0.0506592,-2.77802,0.0314331,0.0396729,0.00457764,0.00183105,0.0131226,0.038147,-0.0204468,0.0668335,0.0454712
174,3,0.0302124,0.0354004,0.0234985,1.52008,0.0302124,0.0286865,0.0219727,-0.00305176,-0.0134277,0.0360107,-0.0152588,0.0360107,0.0274658
174,4,0.00549316,0.0143433,0.0146484,3.31909,0.0369263,0.0204468,0.0231934,0.0161743,0.00549316,0.0286865,-0.0262451,0.0268555,0.0149536
175,0,0.0143433,0.0326538,0.0177002,3.30933,0.0448608,0.0305176,0.010376,0.0204468,0.0326538,0.0363159,-0.0253296,0.0137329,0.0415039
175,1,0.0149536,0.00854492,0.0137329,3.30292,0.0164795,0.00946045,0.0271606,0.0195312,0.0186157,0.032959,-0.0338745,0.0485229,0.0253296
175,2,0.0128174,-0.0308228,0.0158691,3.31482,0.0149536,0.03479,0.0238037,0.0262451,0.0131226,0.0280762,-0.0228882,0.0106812,0.0292969
175,3,-0.0088501,0.0128174,0.00396729,3.2843,0.0265503,0.0140381,0.0314331,0.0186157,0.0164795,0.0292969,-0.0549316,0.0204468,0.0308228
175,4,0.0247192,-0.0134277,0.00640869,3.18756,0.0125122,0.0476074,0.0134277,0.0167847,-0.00427246,0.0189209,-0.0180054,0.0186157,0.0930786
176,0,0.0161743,0.00183105,0.0390625,3.06732,0.0317383,0.0454712,0.0201416,0.0769043,0.0219727,0.0192261,-0.0311279,-0.000610352,0.0296021
176,1,0.0231934,0.0363159,0.0308228,2.49512,0.0222778,0.0228882,0.0192261,0.0292969,0.00854492,0.0366211,-0.0238037,0.0219727,0.0402832
176,2,0.00671387,0.062561,0.0219727,0.639954,0.0396729,0.0384521,0.0289917,0.0161743,0.00854492,-0.015564,-0.0128174,0.0234985,0.0177002
176,3,-0.00793457,0.0460815,0.0137329,-1.59241,0.0314331,0.0289917,-0.00854492,0.0177002,0.0131226,0.0250244,-0.0177002,0.0219727,0.0326538
176,4,0.0405884,0.0369263,0.0241089,-3.17413,0.020752,0.0537109,0.0616455,0.0378418,0.0253296,-0.0222778,-0.0152588,0.0189209,0.0378418
177,0,0.022583,0.0463867,0.0213623,-3.16589,0.0405884,0.0234985,0.022583,0.0286865,0.0158691,0.043335,-0.0213623,0.00579834,0.0280762
