Devices
1000
,,Myon - Voltage,,,,,,,,,,,,,
Frame,Sub Frame,GC-M,TA,SOL,VM,VL,RF,BF,ST,GLUT-M,EO,Gracilis,GC-L,Semimembranosus
,,V,V,V,V,V,V,V,V,V,V,V,V,V
1,0,0.0250244,-0.0265503,-0.0164795,0.0253296,0.0259399,0.088501,0.0271606,0.0253296,0.0500488,0.0543213,-0.0204468,0.0189209,0.0186157
1,1,0.0622559,-0.00244141,0.0234985,0.0216675,0.032959,0.0564575,0.0238037,0.0222778,0.0363159,-0.255127,-0.0164795,0.0280762,0.0219727
1,2,0.0863647,0.0595093,0.0820923,-0.00183105,0.0149536,0.0650024,0.0357056,0.0228882,0.0369263,-0.318909,-0.0119019,0.0204468,0.0119019
1,3,0.0588989,0.141296,0.0149536,0.0219727,0.0247192,0.0521851,0.0408936,0.0234985,0.0338745,-0.502625,-0.0204468,0.0161743,-0.00427246
1,4,0.0585938,0.0341797,0.00549316,0.0231934,0.0204468,0.0265503,0.045166,-0.00305176,0.0363159,-1.86493,-0.0167847,-0.00701904,0.0189209
2,0,0.0613403,-0.00457764,0.0100708,0.0125122,0.0228882,0.0302124,0.0515747,0.0314331,0.0222778,0.157471,-0.0234985,0.0149536,0.0134277
2,1,0.0448608,-0.0143433,-0.00915527,0.0210571,0.0195312,0.0546265,0.0357056,0.0296021,0.0363159,0.315247,-0.015564,0.000915527,0.00152588
2,2,0.0436401,-0.0534058,0.00366211,0.0198364,0.0262451,0.0320435,0.0253296,0.0408936,0.0338745,0.32196,-0.0198364,0.0149536,0.00213623
2,3,0.0408936,-0.0296021,0.0161743,0.012207,0.0439453,0.0296021,0.0430298,0.0250244,0.0231934,0.262756,-0.0689697,0.0164795,0.00579834
2,4,0.0588989,-0.010376,0.00488281,0.0253296,0.0335693,0.0228882,0.0338745,0.0268555,0.0283813,0.265808,-0.0177002,0.0088501,0.0308228
3,0,0.0357056,0.0100708,0.00823975,0.0167847,0.0146484,0.0244141,0.0366211,0.0265503,0.0265503,0.26001,0.0131226,0.00335693,0.0146484
3,1,0.0524902,0.0198364,0.0128174,0.0537109,0.0305176,0.0259399,0.0427246,0.0280762,0.0253296,0.25177,-0.0216675,0.0140381,0.0140381
3,2,-0.0601196,0.017395,0.0106812,-0.0134277,0.0396729,0.0323486,0.0750732,0.0170898,0.0283813,0.212402,-0.0161743,0.0112915,0.0286865
3,3,-0.00335693,0.0289917,-0.000610352,0.0335693,0.0354004,0.0192261,0.0274658,0.0149536,0.0256348,0.192261,-0.0161743,-0.043335,0.0210571
3,4,0.00701904,0.0137329,-0.032959,0.0411987,0.027771,0.0241089,0.0238037,0.0317383,0.0286865,0.190735,-0.0280762,0.020752,0.0311279
4,0,0.0012207,0.0311279,0.0106812,0.0234985,0.0244141,0.0363159,0.0314331,0.0393677,0.00305176,0.163269,-0.0247192,0.0576782,0.0143433
4,1,-0.0344849,0.0769043,0.0189209,0.00854492,0.0601196,0.0311279,0.0128174,0.0262451,0.0527954,0.140991,-0.0637817,0.0158691,0.0201416
4,2,0.00457764,0.0637817,0.0283813,0.0308228,0.0231934,0.0265503,-0.0378418,0.0280762,0.0292969,0.120239,-0.015564,0.0201416,0.0335693
4,3,0.00274658,0.0320435,0.0430298,0.0238037,0.0320435,0.0506592,0.0234985,0.0634766,0.0408936,0.137634,0.0189209,0.017395,0.0247192
4,4,0.000305176,0.0183105,0.0204468,0.0192261,0.0192261,-0.00183105,0.0405884,0.0195312,-0.000610352,0.109253,-0.0320435,0.0628662,0.0228882
5,0,-0.00518799,-0.0231934,0.0256348,0.0396729,0.0393677,0.0320435,0.0473022,0.0378418,0.0253296,0.0939941,-0.0189209,0.027771,0.0238037
5,1,0.0088501,-0.0326538,0.0463867,0.0180054,0.0262451,0.0146484,0.038147,0.0262451,0.0302124,0.090332,-0.0140381,0.062561,0.0131226
5,2,0.00488281,-0.0521851,0.0198364,0.0271606,0.0164795,0.0189209,0.0393677,0.0463867,0.0524902,0.0857544,-0.0317383,0.0259399,0.0213623
5,3,0.012207,-0.0289917,0.0228882,0.0222778,0.0320435,0.0326538,0.0271606,0.0289917,0.0250244,0.0872803,-0.0195312,-0.0253296,0.00915527
5,4,0.0137329,-0.0109863,0.0393677,0.0149536,0.0167847,0.0112915,0.0213623,0.0262451,0.0540161,0.0579834,-0.0292969,0.0341797,0.0286865
6,0,0.0320435,-0.0149536,0.0164795,0.0253296,0.0646973,0.0198364,0.0411987,0.039978,0.0314331,0.0534058,0.00152588,0.0241089,0.0183105
6,1,0.0271606,-0.0143433,0.0198364,0.022583,0.0262451,0.0256348,0.0219727,0.0247192,0.0296021,0.117188,-0.0341797,0.0106812,0.0268555
6,2,0.0106812,-0.00183105,0.000610352,0.0152588,0.0961304,0.0674438,0.0253296,0.0790405,0.0552368,0.0482178,-0.0183105,0.0192261,0.0338745
6,3,0.0204468,0.0518799,0.0164795,0.0335693,0.0323486,0.0247192,0.0402832,0.0253296,0.038147,0.0506592,-0.0134277,0.0183105,0.017395
6,4,0.0128174,0.0216675,0.0152588,0.0228882,0.0210571,0.0320435,0.0637817,0.0177002,0.0268555,0.0772095,-0.0198364,0.0286865,0.0656128
7,0,0.0137329,-0.0100708,0.0308228,0.00701904,0.0210571,0.038147,0.0366211,0.0189209,0.00549316,0.0338745,-0.0219727,0.015564,0.0231934
7,1,0.0161743,0.0128174,0.0198364,-0.0430298,-0.000305176,0.0234985,0.0628662,0.0183105,0.0299072,0.0314331,-0.0149536,0.0183105,0.0186157
7,2,0.0317383,0.0354004,0.0106812,0.00305176,0.0308228,0.0360107,0.0247192,0.0274658,0.0195312,0.0454712,-0.022583,0.0271606,0.0265503
7,3,0.0265503,0.0201416,0.0115967,0.0161743,0.0213623,0.0402832,0.0494385,0.03479,0.00396729,0.0491333,-0.0192261,0.0210571,0.0231934
7,4,-0.00854492,0.0741577,0.0350952,0.0204468,-0.00274658,0.0354004,0.0454712,0.0119019,0.0253296,0.0253296,-0.0262451,0.0192261,0.0177002
8,0,-0.000915527,0.00946045,0.0299072,0.0204468,0.0244141,0.0161743,0.0305176,0.0360107,-0.00366211,0.0564575,-0.0302124,0.0152588,0.0372314
8,1,-0.00732422,-0.0320435,0.00427246,0.0167847,0.0408936,0.0311279,0.027771,-0.022583,0.0527954,0.020752,-0.0198364,0.0189209,0.0234985
8,2,0.00213623,-0.0317383,0.0219727,0.0323486,0.0302124,0.0302124,0.0268555,0.0527954,0.0128174,0.0201416,-0.0393677,0.0170898,0.0296021
8,3,0.00244141,-0.0338745,0.0286865,0.0421143,0.0183105,0.020752,0.0231934,0.0323486,0.00762939,0.0012207,-0.0305176,0.017395,0.0390625
8,4,0.083313,-0.0518799,0.0106812,0.038147,0.0177002,0.050354,0.0485229,0.0354004,0.0375366,0.0137329,-0.0228882,0.0186157,0.0286865
9,0,0.0427246,-0.0738525,0.0262451,0.0143433,0.0244141,0.0305176,0.0460815,0.0360107,0.00274658,0.0149536,-0.0192261,0.0308228,0.0134277
9,1,0.0585938,-0.00579834,0.0167847,0.0161743,0.022583,0.0265503,-0.0283813,0.0305176,0.0213623,0.0866699,-0.0357056,0.0268555,0.0570679
9,2,0.0378418,0.123291,0.0341797,0.0210571,-0.0317383,0.0247192,0.0259399,0.032959,-0.00305176,0.0262451,-0.0259399,0.0222778,0.00457764
9,3,0.0344849,0.0656128,0.0323486,0.0247192,0.0146484,0.0149536,0.0259399,0.0308228,0.0234985,0.0180054,-0.0213623,0.00732422,0.0204468
9,4,0.0262451,0.0213623,0.0241089,0.0271606,-0.0335693,0.027771,0.0140381,0.00518799,0.0244141,0.0177002,-0.0244141,0.00976562,0.0366211
10,0,0.0210571,0.0167847,0.0363159,0.0186157,-0.00335693,0.0164795,0.0308228,0.0152588,0.00793457,0.0244141,-0.00793457,0.0177002,0.0195312
10,1,-0.0012207,-0.0167847,0.0234985,0.0158691,0.0302124,0.0177002,-0.0338745,0.0308228,0.0366211,0.038147,-0.00976562,0.0143433,0.0125122
10,2,0.00549316,0.0109863,0.0457764,0.0100708,0.0161743,0.0296021,0.0292969,0.039978,0.0344849,0.0332642,-0.0231934,0.0149536,-0.0411987
10,3,-0.022583,-0.0140381,0.0262451,0.0119019,0.0405884,0.0189209,0.0183105,0.0439453,0.0491333,0.0219727,0.00946045,0.00793457,0.0186157
10,4,0.00152588,-0.0509644,-0.00213623,0.00671387,0.0274658,0.00213623,0.0222778,0.0494385,0.0378418,0.0137329,-0.0354004,0.0143433,0.0228882
11,0,-0.0128174,-0.0195312,0.0210571,0.0222778,0.0253296,0.0222778,0.0253296,0.0195312,0.0265503,-0.00518799,-0.0241089,0.0222778,0.0549316
11,1,-0.0100708,0.0350952,0.00854492,-0.00213623,0.0323486,0.0256348,0.0463867,0.0317383,0.0341797,-0.0012207,-0.0177002,0.0183105,0.0238037
11,2,0.00671387,0.100403,0.00793457,0.0250244,0.00244141,0.0244141,0.0280762,0.0466919,0.0411987,0.0585938,-0.0308228,0.00579834,-0.00823975
11,3,0.0708008,0.0848389,0.0473022,0.0177002,0.0167847,0.0280762,0.0335693,0.0213623,0.0485229,0.0192261,-0.0250244,0.0201416,0.0408936
11,4,0.03479,0.0564575,0.0292969,0.0253296,0.0231934,-0.00518799,0.0228882,0.0326538,0.0863647,-0.0219727,-0.0262451,0.0671387,0.0292969
12,0,0.00244141,0.0326538,0.0204468,0.012207,-0.00671387,0.0189209,0.0305176,-0.027771,0.0482178,-0.000915527,-0.0247192,0.0256348,0.00366211
12,1,0.050354,-0.017395,0.0222778,0.0198364,0.0201416,0.0204468,0.032959,0.027771,0.0448608,0.0140381,-0.0360107,-0.00793457,-0.0134277
12,2,0.0448608,-0.0421143,0.0115967,0.0250244,0.0183105,0.0210571,0.0305176,0.0305176,0.032959,0.0216675,-0.00640869,-0.000610352,0.0119019
12,3,0.0100708,-0.0753784,0.0344849,0.0143433,0.0186157,0.00701904,0.039978,0.0363159,0.0686646,0.015564,-0.0241089,0.0506592,0.00244141
12,4,0.00183105,-0.0289917,-0.0195312,0.00793457,0.0149536,0.0262451,0.0283813,0.0396729,0.0393677,0.010376,-0.0274658,0.0140381,0.0292969
13,0,0.0189209,0.0259399,0.0357056,0.0726318,0.0479126,0.0186157,0.0286865,0.0460815,0.0396729,0.00610352,-0.0360107,0.0234985,0.0286865
13,1,0.00457764,0.0302124,0.0280762,0.00976562,0.0222778,0.0320435,0.0405884,0.0149536,0.0308228,-0.0183105,-0.0326538,0.0170898,0.0387573
13,2,0.03479,-0.00946045,-0.0234985,0.00457764,0.0259399,-0.00427246,0.0436401,0.0253296,0.0787354,-0.00671387,-0.0299072,0.0238037,0.0231934
13,3,0.0463867,-0.0335693,0.0183105,0.0302124,0.00152588,0.0128174,0.0204468,0.0180054,0.0372314,-0.00946045,-0.0494385,0.00579834,0.0146484
13,4,0.0299072,0.0088501,0.0378418,0.032959,0.0494385,0.0204468,0.06073,0.0344849,0.0332642,-0.00854492,-0.0253296,0.027771,0.00701904
14,0,0.0637817,0.0244141,0.0234985,0.015564,0.0128174,0.0427246,0.0393677,0.0183105,0.0259399,-0.00579834,-0.00213623,0.0167847,0.00610352
14,1,0.0848389,0.17395,-0.00152588,0.0140381,0.0305176,0.0180054,0.0170898,0.0274658,0.0338745,-0.00579834,-0.027771,0.0204468,0.0161743
14,2,0.0619507,0.186768,0.0167847,0.0265503,0.0283813,0.0299072,0.0125122,0.0366211,0.0341797,-0.00823975,-0.0247192,0.027771,-0.0314331
14,3,0.0439453,0.119629,0.0588989,0.0204468,0.00762939,0.0463867,0.0396729,0.0338745,0.027771,-0.0363159,-0.0296021,0.012207,0.0222778
14,4,0.0500488,0.0421143,0.0012207,-0.00305176,0.0402832,0.0244141,0.0646973,0.0271606,0.0268555,-0.0012207,-0.0344849,0.0198364,0.012207
15,0,0.0445557,0.0561523,0.0192261,0.0262451,-0.0213623,0.0201416,0.0213623,0.00854492,0.0213623,-0.0415039,-0.0369263,0.017395,0.0177002
15,1,0.0311279,0.0463867,0.0140381,0.00213623,0.00823975,0.00305176,0.032959,0.0317383,0.0881958,-0.0869751,-0.0292969,-0.0134277,0.0289917
15,2,0.00213623,0.0219727,0.0128174,0.0164795,0.0296021,0.03479,-0.0244141,0.0186157,0.0302124,-0.000610352,-0.0421143,0.0177002,0.0234985
15,3,0.0177002,-0.0314331,0.00793457,0.0201416,0.0244141,0.0268555,0.0320435,0.0283813,0.0204468,-0.180969,-0.0274658,0.0259399,0.0378418
15,4,0.0302124,-0.0366211,-0.00732422,0.0241089,0.022583,-0.0314331,0.027771,0.0302124,0.0152588,0.0570679,-0.0296021,0.0344849,0.0427246
16,0,0.0296021,-0.0506592,0.0167847,0.0296021,0.0415039,0.0296021,0.0265503,0.0112915,0.0286865,0.0427246,-0.0296021,0.0393677,0.0357056
16,1,0.0576782,0.0119019,0.00793457,0.0192261,0.0274658,0.0231934,0.0115967,0.0421143,0.0302124,0.0668335,-0.03479,0.0317383,0.027771
16,2,0.0305176,0.0769043,-0.00396729,0.00274658,-0.0292969,0.0631714,0.0289917,0.0402832,0.0427246,0.0601196,-0.0344849,0.0167847,0.0396729
16,3,0.0384521,0.0817871,-0.00305176,0.0109863,0.0289917,0.0320435,0.022583,0.022583,0.0219727,0.038147,-0.0335693,0.0192261,0.0305176
16,4,0.0167847,0.0146484,0.0100708,0.00762939,0.0726318,0.0213623,0.017395,0.0326538,0.0177002,0.0177002,-0.0204468,0.0350952,0.0241089
17,0,0.0143433,0.0585938,0.0228882,0.0210571,0.0109863,-0.0369263,0.032959,0.0296021,0.0698853,-0.0540161,-0.0338745,0.0134277,0.0231934
17,1,0.0564575,0.0891113,0.0289917,0.022583,0.0189209,0.012207,0.039978,0.0106812,0.0326538,-0.0308228,-0.010376,0.0286865,0.0170898
17,2,-0.00152588,0.0393677,0.0152588,0.088501,0.0170898,0.0134277,-0.0286865,0.027771,0.0320435,-0.273132,-0.0289917,0.0228882,-0.0140381
17,3,0.00335693,0.0186157,-0.00152588,0.0137329,0.0244141,0.0115967,0.0405884,0.0183105,0.0595093,-0.357056,-0.0286865,0.0161743,0.0177002
17,4,0.0457764,0.00732422,-0.0106812,0.0256348,0.00213623,0.0247192,0.0213623,0.0430298,0.020752,-0.326233,-0.0128174,0.00915527,-0.000915527
18,0,-0.00518799,0.0167847,-0.00427246,0.0314331,0.0646973,0.0299072,0.022583,0.062561,0.0454712,-0.284119,-0.0421143,0.00793457,0.00152588
18,1,-0.00457764,0.0927734,0.020752,0.0186157,0.022583,0.0296021,-0.0375366,0.0320435,0.0271606,0.0924683,-0.0213623,0.00396729,-0.0518799
18,2,0.0344849,0.103455,-0.00976562,0.0146484,0.00183105,-0.0088501,0.0204468,0.0473022,0.0665283,0.198975,-0.0314331,0.0582886,0.00671387
18,3,0.0448608,0.0512695,0.0164795,0.0344849,0.0192261,0.0604248,0.0460815,0.0375366,0.015564,0.228577,-0.0241089,0.0317383,0.0283813
18,4,0.0411987,-0.0222778,0.0271606,0.0186157,0.0201416,-0.0201416,0.0158691,0.0195312,0.0238037,-0.299072,-0.0286865,0.0180054,0.0143433
19,0,0.0335693,-0.0616455,-0.00335693,0.0228882,0.0161743,0.0112915,0.00610352,0.0384521,0.0283813,-0.0839233,-0.0311279,0.032959,0.0186157
19,1,0.0793457,-0.0228882,0.00640869,0.0491333,0.012207,0.0146484,-0.00427246,0.0244141,0.0167847,0.123901,-0.0494385,0.0317383,-0.0338745
19,2,0.0390625,0.0299072,-0.000610352,0.0244141,0.00793457,0.0378418,0.0210571,0.0143433,0.00427246,0.228577,-0.0332642,0.0311279,0.0250244
19,3,0.0430298,0.0268555,0.0341797,0.0280762,0.0140381,0.0283813,0.0204468,0.00915527,0.0286865,0.177307,-0.0299072,0.0274658,0.0271606
19,4,0.0411987,0.0558472,0.0268555,0.0216675,0.00671387,0.0186157,0.022583,0.017395,-0.0543213,0.0942993,-0.0231934,-0.0012207,0.0360107
20,0,0.0588989,0.0958252,0.0320435,0.0204468,0.0308228,0.00274658,0.0335693,0.0317383,0.0161743,-0.173035,-0.0363159,0.0338745,0.0363159
20,1,0.0335693,0.0650024,0.0256348,0.0146484,0.0234985,0.00518799,0.0219727,0.0970459,0.0415039,0.0741577,-0.0305176,0.010376,0.0247192
20,2,-0.00549316,0.0601196,0.0323486,0.0189209,0.0198364,0.0115967,0.0128174,0.0289917,0.0344849,0.181274,-0.0286865,0.0283813,0.0286865
20,3,0.0186157,0.0442505,0.0323486,0.0149536,0.0259399,-0.00457764,0.0244141,0.0784302,0.0338745,0.145569,-0.0613403,0.0280762,0.0265503
20,4,0.0424194,0.0271606,0.0146484,0.0152588,0.00579834,-0.0299072,0.012207,0.015564,0.0881958,0.192566,-0.0292969,0.0442505,0.0219727
21,0,0.0323486,-0.0180054,0.0238037,0.032959,0.0415039,0.0088501,0.0241089,0.0158691,0.015564,0.0640869,-0.0274658,0.0289917,0.0338745
21,1,0.0186157,-0.000915527,0.00152588,0.0253296,0.000610352,0.0222778,0.0228882,0.0274658,0.0320435,0.1828,-0.03479,0.0631714,0.0137329
21,2,0.0180054,0.0088501,0.0112915,0.0283813,0.0222778,0.00305176,0.0222778,0.0192261,0.0250244,0.183411,-0.0170898,0.0231934,0.0466919
21,3,0.0216675,0.0183105,0.00671387,0.0259399,0.0271606,0.017395,0.0183105,0.0183105,0.0286865,0.155029,-0.0332642,0.0405884,0.0131226
21,4,0.0274658,-0.000610352,-0.00427246,0.00457764,0.0231934,0.00213623,0.0317383,-0.0161743,0.0335693,0.162964,-0.0167847,0.0448608,0.0271606
22,0,0.0372314,0.0106812,0.0286865,0.0881958,0.0231934,0.0167847,-0.0335693,0.0253296,0.022583,-1.18835,-0.0253296,0.0186157,0.0256348
22,1,0.0308228,0.0476074,0.0234985,0.022583,0.0180054,0.00488281,0.0158691,0.032959,0.0183105,-0.420532,0.0106812,0.0238037,0.0250244
22,2,0.0238037,0.0897217,0.0161743,0.0167847,0.0125122,0.0183105,0.0204468,0.027771,0.0210571,0.0323486,-0.0109863,0.0363159,0.0088501
22,3,0.0271606,0.0790405,0.010376,0.0164795,0.00152588,0.00579834,0.00701904,0.0265503,0.0164795,0.232544,-0.0259399,0.0427246,0.0402832
22,4,0.0338745,0.0518799,0.0231934,0.0238037,0.0265503,-0.0238037,0.0241089,0.0256348,0.0512695,-1.52435,-0.0231934,0.0662231,0.0170898
23,0,0.0302124,0.0228882,0.0234985,0.022583,0.0299072,0.0161743,0.0195312,0.0146484,0.038147,0.238647,-0.0466919,0.0268555,0.0408936
23,1,0.0283813,0.0210571,0.0946045,0.0189209,0.0241089,0.0619507,0.0192261,0.0244141,0.0714111,0.47821,-0.0338745,0.0234985,-0.00701904
23,2,0.0363159,-0.00427246,0.0335693,0.015564,0.0216675,0.00213623,0.0253296,0.0210571,0.0115967,0.438843,-0.0473022,0.0454712,0.0201416
23,3,0.0213623,0.00366211,0.0134277,0.0219727,0.083313,0.0189209,0.0192261,0.0454712,0.0210571,0.367126,-0.0439453,0.0244141,0.0228882
23,4,0.0314331,0.0131226,0.0448608,0.0357056,0.0274658,0.0112915,0.0137329,0.0259399,0.0149536,0.310364,-0.03479,0.0421143,0.0521851
24,0,0.0186157,0.032959,0.0280762,0.0244141,0.017395,0.0112915,0.0210571,0.0250244,0.038147,0.267334,-0.0344849,0.03479,0.020752
24,1,0.0338745,0.0305176,0.0384521,0.0320435,0.0344849,0.0195312,0.0302124,0.00640869,0.0250244,0.288696,-0.0292969,0.0289917,0.0280762
24,2,0.0442505,0.0521851,0.0274658,0.00427246,0.0231934,-0.00915527,0.027771,0.0125122,0.0167847,0.280762,-0.00610352,0.0402832,0.0518799
24,3,-0.00732422,0.0393677,0.00854492,0.0210571,0.0289917,0.0158691,0.0131226,0.0137329,0.0128174,0.254517,-0.032959,0.0369263,0.0424194
24,4,-0.0216675,0.032959,0.00976562,0.0271606,0.00762939,0.0128174,0.00518799,0.0427246,0.0180054,0.242615,-0.0363159,0.0244141,0.0238037
25,0,0.0137329,0.00854492,0.0170898,0.00946045,0.017395,0.0088501,0.0408936,0.0234985,0.0204468,0.142517,-0.0262451,0.0341797,0.0164795
25,1,0.0494385,0.000610352,0.0149536,-0.0457764,0.0180054,0.0201416,-0.0369263,0.0164795,0.0259399,-0.237732,-0.0372314,0.0271606,0.0357056
25,2,0.00915527,-0.0387573,0.022583,0.0250244,0.0344849,0.00183105,0.0119019,0.0109863,0.00396729,-0.399475,-0.032959,0.0366211,0.0244141
25,3,0.0350952,-0.00793457,0.0942993,0.0186157,0.0286865,-0.032959,0.0186157,0.022583,0.0195312,-0.799866,-0.0326538,0.0341797,0.0280762
25,4,0.022583,0.00396729,0.0271606,0.015564,0.0149536,0.0241089,0.0204468,0.0164795,0.00152588,-0.0592041,-0.0259399,0.00244141,0.039978
26,0,0.0506592,-0.00213623,0.0286865,-0.0335693,0.0177002,0.00793457,0.0421143,0.0186157,0.0265503,0.15686,0.00701904,0.0350952,0.0326538
26,1,0.00457764,0.0418091,0.0344849,-0.00762939,0.0149536,0.0152588,0.0186157,0.0128174,0.0286865,-0.182495,-0.0314331,0.0280762,0.0610352
26,2,-0.00946045,0.110168,0.039978,0.0280762,0.0332642,0.0106812,0.0158691,0.0143433,0.00946045,0.241394,-0.0332642,0.0448608,0.0299072
26,3,0.0247192,0.126953,0.0314331,0.0128174,0.00946045,0.00671387,0.00915527,0.027771,0.0088501,-0.0506592,-0.0222778,-0.0204468,0.0274658
26,4,0.0192261,0.0643921,0.0390625,0.015564,0.03479,0.0238037,0.0183105,0.0213623,0.0244141,-0.0790405,-0.0311279,0.032959,0.0326538
27,0,0.038147,0.0375366,0.0222778,0.0299072,0.0241089,0.00640869,0.00274658,0.0259399,0.0344849,0.274658,-0.0360107,0.0283813,0.0143433
27,1,0.0183105,0.00457764,0.00640869,0.0195312,-0.00457764,0.0305176,0.0167847,0.017395,0.0140381,0.335388,-0.017395,-0.00335693,0.0494385
27,2,0.0183105,-0.015564,0.0210571,0.020752,0.0338745,0.00732422,0.00854492,0.0231934,0.0354004,0.311584,-0.0268555,0.020752,0.0241089
27,3,0.0149536,-0.0543213,0.0308228,0.0292969,0.0204468,0.00640869,0.0143433,0.0344849,0.0112915,0.414124,-0.0366211,0.0466919,0.0357056
27,4,0.0338745,-0.103455,0.0375366,0.022583,0.012207,0.0167847,0.0180054,0.0286865,0.0234985,0.201416,-0.0341797,0.0341797,0.0415039
28,0,0.0262451,-0.121155,0.0177002,0.0354004,0.0192261,0.0219727,0.0125122,0.0170898,0.0216675,-0.0942993,-0.0250244,0.0405884,0.0814819
28,1,0.017395,-0.106812,0.0466919,0.0271606,0.0775146,0.0283813,0.0152588,-0.00152588,0.00854492,-0.243835,-0.0289917,0.0430298,0.0482178
28,2,0.032959,-0.117798,0.0534058,0.0152588,0.0302124,0.0115967,0.0238037,0.00793457,0.0231934,-0.246582,-0.0296021,0.0338745,0.0186157
28,3,0.0469971,-0.0726318,0.0598145,0.0289917,0.0189209,-0.00518799,0.0790405,0.0247192,0.0311279,0.291443,-0.0213623,0.0323486,0.0363159
28,4,0.0250244,0.0946045,0.0457764,0.0595093,0.0396729,0.0234985,0.00915527,0.0384521,0.0506592,0.295715,-0.050354,0.0454712,0.0268555
29,0,0.0485229,0.224304,0.057373,0.102844,0.0131226,0.0192261,-0.0241089,0.0247192,0.0292969,0.287781,-0.0247192,0.0445557,0.0183105
29,1,0.067749,0.254517,0.0628662,0.0180054,0.022583,0.0357056,0.0201416,0.0146484,0.0201416,0.440979,-0.0216675,0.0531006,0.0216675
29,2,0.083313,0.225525,0.0506592,0.032959,0.0177002,0.0308228,0.0292969,0.0341797,0.0320435,0.456543,-0.0183105,0.0442505,-0.00701904
29,3,0.0616455,0.189819,0.0411987,0.03479,0.0656128,0.0164795,0.0250244,0.020752,0.0228882,0.393677,-0.0195312,0.0393677,0.0247192
29,4,0.0561523,0.215454,0.0302124,0.020752,0.0250244,0.0216675,0.0302124,0.0299072,0.0494385,0.353394,-0.020752,0.0491333,0.00946045
30,0,0.0448608,0.141296,0.0183105,0.0250244,-0.0384521,0.0344849,0.0115967,0.0506592,0.0344849,0.308228,-0.0177002,0.0259399,0.0143433
30,1,0.0436401,-0.0500488,0.0192261,0.00823975,0.0146484,0.0234985,0.0210571,0.0231934,0.0384521,-0.283203,-0.0286865,0.017395,0.00640869
30,2,0.0439453,-0.0683594,0.00305176,0.0262451,0.00396729,0.0222778,0.0228882,0.017395,0.0299072,0.26825,-0.0228882,-0.0012207,0.0845337
30,3,0.0842285,-0.00244141,-0.0152588,0.0518799,0.022583,0.0247192,0.00640869,0.0149536,0.0228882,0.26947,-0.027771,0.0143433,0.0311279
30,4,0.022583,0.0497437,0.0204468,0.0311279,0.0201416,0.0314331,0.00518799,0.0228882,0.0256348,0.245056,-0.020752,0.0146484,0.0323486
31,0,0.0857544,0.00396729,0.0238037,0.0784302,0.0320435,0.0244141,-0.0405884,-0.0106812,0.020752,0.241089,-0.0585938,0.020752,0.00366211
31,1,0.0427246,0.0634766,0.0314331,0.0265503,0.0183105,0.0268555,0.0262451,0.0250244,0.0137329,0.177307,-0.0219727,0.0320435,0.0357056
31,2,0.0482178,-0.0228882,0.032959,0.0341797,0.0204468,0.0259399,0.0170898,0.0222778,0.0198364,0.162354,-0.0289917,0.0881958,0.0488281
31,3,0.0241089,0.015564,0.0186157,0.0286865,0.0164795,-0.00244141,0.0195312,0.0469971,0.0183105,0.143738,-0.0375366,0.0228882,0.0366211
31,4,0.0292969,0.0189209,-0.000610352,0.0164795,0.0128174,0.017395,0.0146484,0.00518799,0.00671387,-0.161438,-0.0247192,0.0238037,0.0476074
32,0,-0.0204468,0.0283813,0.0143433,0.0204468,0.0189209,0.0299072,0.0686646,0.0292969,0.0177002,-0.108337,-0.0228882,0.0234985,0.0402832
32,1,-0.0012207,0.00244141,0.00915527,-0.00732422,0.0308228,0.0265503,0.0234985,0.00762939,0.00976562,-0.152588,-0.0198364,0.0357056,0.0634766
32,2,0.0210571,-0.0115967,-0.0115967,0.0366211,0.0195312,0.03479,0.0112915,0.012207,-0.000915527,-0.503235,0.00549316,0.03479,0.0238037
32,3,0.0262451,-0.0216675,-0.0149536,0.0354004,0.032959,-0.017395,0.0292969,0.0137329,-0.0448608,0.159302,-0.0180054,0.0372314,0.0186157
32,4,-0.00732422,0.00305176,0.0256348,0.0283813,0.0296021,0.0238037,0.0198364,0.00793457,0.00823975,0.22522,-0.0228882,0.0296021,0.0186157
33,0,0.017395,0.0222778,0.0463867,0.0387573,0.0320435,0.0198364,0.0250244,0.0143433,-0.000915527,0.147095,-0.0167847,0.0213623,0.0317383
33,1,0.0256348,-0.0241089,0.0411987,0.0228882,0.0177002,0.0100708,0.0311279,0.0131226,0.00335693,0.220032,-0.0119019,0.0393677,-0.0274658
33,2,0.0808716,0.00579834,0.0448608,0.0872803,0.03479,0.027771,-0.0180054,0.0146484,-0.00396729,0.188904,-0.0115967,0.0305176,0.062561
33,3,0.0250244,0.0164795,0.0387573,0.0335693,0.0219727,-0.0265503,0.0247192,0.0186157,0.00976562,0.215454,-0.0186157,0.0289917,0.0183105
33,4,0.0219727,0.0366211,0.0604248,0.0234985,-0.022583,0.0198364,0.0195312,0.0161743,0.0100708,0.197144,-0.0238037,0.050354,0.0280762
34,0,0.0250244,0.00946045,0.0726318,0.0323486,0.0341797,0.0390625,0.0357056,0.00915527,0.00732422,0.164795,-0.0137329,-0.0106812,0.0189209
34,1,0.0213623,-0.0195312,0.0537109,0.0262451,0.0125122,0.0164795,0.0268555,0.0305176,-0.00976562,-0.0634766,-0.0234985,0.0469971,0.0338745
34,2,0.0186157,0.0222778,0.107117,0.0320435,0.0320435,-0.0299072,0.020752,0.00335693,0.0546265,0.105286,-0.0247192,-0.000915527,0.0442505
34,3,0.0143433,0.111389,-0.0128174,0.0314331,0.0323486,0.0601196,0.0238037,0.0125122,0.0210571,0.119019,-0.0274658,0.0393677,0.0271606
34,4,-0.0012207,0.125732,0.0216675,0.0482178,0.0317383,0.0238037,0.0311279,0.0112915,0.0289917,0.102234,-0.0210571,0.0320435,0.0457764
35,0,-0.0350952,0.0421143,0.0189209,0.0180054,0.0302124,0.010376,0.0164795,0.00640869,0.032959,0.0958252,-0.0360107,0.0259399,0.0387573
35,1,-0.0234985,0.0128174,0.00488281,0.0216675,0.0274658,0.0247192,0.0219727,0.0213623,0.0177002,0.0701904,-0.0238037,0.0216675,0.0286865
35,2,-0.00946045,0.0161743,0.0286865,0.0250244,0.0527954,0.0228882,0.022583,0.0714111,0.0274658,0.0747681,-0.00610352,0.0430298,0.0305176
35,3,0.0143433,0.0396729,0.038147,0.0405884,0.0622559,0.0268555,0.0244141,0.017395,0.0299072,0.0616455,-0.0335693,0.0296021,0.0164795
35,4,0.0860596,0.038147,0.0213623,0.0280762,0.0280762,0.0448608,0.020752,0.0213623,0.0268555,0.0558472,-0.010376,0.0115967,0.00854492
36,0,0.0292969,0.0717163,0.0411987,0.0317383,0.0283813,0.0210571,0.0683594,0.00854492,0.015564,0.0860596,-0.0350952,0.0299072,0.00457764
36,1,0.0494385,0.0454712,0.0439453,0.0210571,0.0192261,0.0335693,0.0198364,0.0106812,0.017395,0.0582886,-0.0189209,0.0210571,-0.0415039
36,2,0.0613403,0.022583,0.0958252,0.0378418,0.0244141,0.0247192,0.0186157,0.0158691,0.0247192,0.0296021,-0.0286865,0.0296021,0.00427246
36,3,0.0650024,0.0656128,0.045166,0.00427246,0.0213623,0.0320435,0.0396729,0.0131226,0.0158691,0.0228882,-0.0289917,0.0253296,0.0134277
36,4,0.0469971,0.0546265,0.0372314,0.0408936,0.0396729,0.0268555,0.022583,0.0350952,0.032959,0.0262451,-0.0262451,0.0314331,0.0146484
37,0,0.0161743,0.050354,-0.00915527,0.03479,0.0396729,-0.0131226,0.020752,0.0180054,-0.00671387,0.0271606,-0.0280762,0.050354,0.0256348
37,1,-0.00549316,0.0686646,0.0265503,0.0378418,0.0421143,0.0234985,-0.0158691,0.0335693,0.0115967,-0.0320435,-0.0289917,0.0357056,0.0296021
37,2,0.00396729,0.0759888,0.0540161,0.0393677,0.0369263,0.0265503,0.0183105,0.00671387,0.00610352,-0.0183105,-0.0219727,0.0268555,0.0296021
37,3,-0.000915527,0.0497437,0.0262451,0.0292969,0.0363159,0.0231934,0.0234985,0.0192261,0.000610352,-0.112,-0.0170898,0.0445557,0.0213623
37,4,-0.0341797,-0.00701904,0.0393677,0.0448608,0.0341797,0.00152588,0.0292969,0.0170898,-0.00183105,-0.161743,-0.022583,0.00701904,0.0262451
38,0,-0.0430298,-0.0741577,0.0180054,0.0366211,0.0341797,0.0280762,0.0112915,0.00427246,0.0250244,-0.0695801,-0.055542,0.0228882,0.0146484
38,1,-0.0357056,-0.121765,0.0405884,0.0201416,0.0567627,0.0344849,0.0265503,0.017395,0.0262451,-0.127869,-0.0302124,0.0247192,0.0396729
38,2,-0.0509644,-0.110779,0.0628662,-0.010376,0.0299072,0.0360107,0.0247192,0.0088501,0.0149536,0.0979614,-0.0158691,0.0241089,-0.0234985
38,3,0.0238037,-0.131226,0.032959,0.0372314,0.0311279,0.0360107,0.0250244,0.012207,0.0216675,0.0445557,-0.0323486,0.0198364,0.0280762
38,4,0.0662231,-0.0744629,0.0402832,0.0363159,0.0265503,0.0714111,0.0372314,0.0198364,-0.0302124,-0.0405884,-0.0250244,0.0241089,0.0360107
39,0,0.071106,0.015564,0.0408936,0.0256348,0.0259399,0.0332642,0.0665283,0.0305176,0.017395,-0.0518799,-0.0418091,0.0161743,0.0259399
39,1,0.0827026,0.0918579,0.0363159,0.0564575,0.0393677,0.0549316,0.0320435,0.0137329,0.0222778,0.00793457,0.0134277,0.0195312,-0.000610352
39,2,0.0473022,0.0912476,0.0137329,0.0378418,0.0265503,0.0527954,0.0320435,0.0183105,0.00854492,0.00976562,-0.03479,0.0128174,0.0140381
39,3,0.0595093,0.0668335,0.0421143,0.0241089,0.0350952,0.0140381,0.039978,0.0164795,0.0244141,0.0164795,-0.050354,0.0213623,0.020752
39,4,0.0311279,0.0643921,0.0421143,0.0308228,0.0479126,0.0460815,0.0216675,0.017395,0.00488281,0.0302124,-0.0180054,0.0201416,0.0219727
40,0,0.0112915,0.163574,0.0140381,0.0515747,-0.000610352,0.0170898,0.0332642,0.0177002,0.0128174,0.0231934,-0.0366211,0.0210571,0.0143433
40,1,0.0454712,0.116272,0.0189209,0.0219727,0.0308228,0.015564,0.0396729,0.00396729,0.0161743,0.0247192,-0.032959,0.0164795,0.0341797
40,2,0.0219727,0.0292969,0.0378418,0.0350952,0.0415039,-0.00518799,0.0244141,0.0161743,0.0186157,0.00701904,-0.0357056,0.0250244,0.0375366
40,3,0.0302124,-0.00549316,0.0378418,0.0314331,0.0445557,0.0445557,0.0296021,0.032959,0.00976562,0.0204468,-0.0354004,0.0161743,0.039978
40,4,0.0335693,0.0158691,0.03479,0.0265503,0.03479,0.0286865,0.0372314,0.0192261,-0.00305176,0.0448608,-0.00793457,0.0241089,0.0866699
41,0,0.0289917,0.0357056,0.0210571,0.0375366,0.0497437,0.0268555,0.0320435,0.0326538,0.017395,0.020752,-0.0198364,0.0106812,0.0259399
41,1,0.00793457,0.0231934,0.0109863,0.0238037,0.0363159,0.0115967,0.0320435,0.0177002,0.00152588,0.00854492,-0.0350952,-0.00946045,0.0427246
41,2,0.0286865,-0.0152588,0.0158691,0.0216675,0.0262451,0.0143433,0.0384521,0.0250244,0.00701904,0.0445557,-0.0186157,0.0140381,0.0344849
41,3,0.00244141,-0.0244141,-0.015564,0.0363159,0.0411987,0.0735474,0.0152588,0.0186157,0.0344849,0.0210571,-0.0262451,0.027771,0.0418091
41,4,0.0140381,-0.0476074,0.0222778,0.0305176,0.0274658,0.0402832,0.043335,0.0286865,0.0158691,0.038147,-0.0241089,0.0320435,0.0411987
42,0,-0.000305176,0.0149536,0.0299072,0.0170898,0.0817871,0.0186157,0.0286865,0.0183105,0.0186157,0.0375366,-0.0259399,0.0161743,0.0189209
42,1,-0.0341797,-0.027771,0.0457764,0.0289917,0.0253296,0.015564,0.0332642,0.03479,0.0164795,0.010376,-0.0317383,0.0119019,0.0335693
42,2,0.0241089,-0.0640869,0.0341797,0.0286865,0.0192261,0.0283813,0.0286865,0.0787354,0.00701904,0.00915527,-0.0152588,0.0140381,0.0396729
42,3,0.0213623,-0.0115967,0.039978,0.0292969,0.0491333,0.0299072,0.0262451,0.0164795,0.0186157,0.0170898,-0.0274658,0.015564,0.0396729
42,4,0.017395,0.0854492,0.032959,0.0332642,-0.00640869,0.015564,0.0286865,0.062561,0.0283813,-0.00579834,-0.020752,0.0253296,0.0308228
43,0,0.0149536,0.139465,0.0305176,0.0473022,0.0317383,0.0296021,0.0280762,0.0302124,0.0811768,0.0143433,-0.0219727,-0.0137329,0.0341797
43,1,0.0134277,0.0515747,0.0357056,0.0479126,0.0259399,0.0183105,0.0241089,0.022583,0.0180054,-0.0485229,-0.0296021,0.032959,0.0650024
43,2,0.00305176,-0.00610352,0.0286865,0.0418091,0.0411987,0.0357056,0.0280762,0.0238037,0.0262451,-0.03479,-0.0158691,0.0161743,0.0634766
43,3,-0.00701904,0.110779,0.0265503,0.0357056,-0.00854492,0.0262451,0.0231934,0.00213623,0.0238037,-0.038147,-0.0213623,0.0100708,0.0457764
43,4,0.0271606,0.178223,0.0430298,0.0875854,0.0256348,0.0350952,0.0378418,0.0164795,0.0195312,-0.0256348,-0.0244141,0.0152588,0.0488281
44,0,0.00732422,0.112,0.0167847,0.0262451,0.0299072,0.0115967,0.0299072,0.071106,0.0302124,-0.0262451,-0.0714111,0.00488281,0.038147
44,1,0.0109863,0.0479126,0.0198364,0.0363159,0.039978,0.0360107,0.0332642,0.0195312,0.0241089,-0.0186157,-0.0149536,0.00579834,0.00457764
44,2,0.0088501,0.0332642,0.0296021,0.0366211,0.0323486,0.045166,0.0137329,0.0268555,0.0283813,-0.0222778,-0.0088501,0.0161743,0.0186157
44,3,-0.00152588,0.0192261,0.00610352,0.0219727,0.0326538,-0.0146484,0.0354004,0.0286865,0.0650024,-0.0360107,-0.0198364,0.0198364,0.0137329
44,4,-0.00762939,0.010376,0.0100708,0.0402832,0.0326538,0.00427246,0.0396729,0.0204468,-0.0170898,-0.0201416,-0.0100708,0.00427246,0.0241089
45,0,0.0390625,0.00732422,0.00549316,0.0198364,0.0280762,0.0320435,0.0445557,0.0253296,0.0128174,-0.0305176,-0.0216675,0.010376,0.0396729
45,1,0.0466919,0.0152588,0.017395,0.0177002,0.0408936,0.0296021,0.0311279,0.0292969,0.0170898,-0.0604248,-0.0228882,0.0256348,-0.00183105
45,2,0.0204468,0.0665283,0.0161743,0.020752,0.0985718,0.0253296,0.0311279,0.0579834,0.00610352,-0.0259399,-0.0167847,0.020752,0.0350952
45,3,0.0268555,0.0128174,0.0210571,0.0152588,0.0256348,0.0405884,0.0317383,0.0378418,0.012207,-0.0741577,-0.0296021,0.00854492,-0.00183105
45,4,0.0149536,0.0527954,0.0100708,0.0302124,0.0302124,0.0201416,0.0424194,0.0372314,0.00549316,-0.0286865,-0.0262451,-0.0198364,-0.00671387
46,0,0.0274658,0.0396729,0.0152588,0.0244141,0.0234985,0.0314331,0.0393677,0.0213623,-0.00732422,-0.0299072,-0.0222778,0.0100708,0.00213623
46,1,0.0442505,0.0112915,0.0289917,0.0192261,0.0286865,0.020752,0.039978,0.0216675,0.0253296,-0.0338745,-0.020752,0.00823975,0.00640869
46,2,0.00854492,0.0143433,0.0228882,0.0708008,0.0109863,0.0421143,0.0402832,0.0326538,0.0146484,-0.0332642,-0.0192261,0.00671387,-0.0198364
46,3,0.0497437,0.0192261,0.0314331,0.0323486,0.0418091,0.0219727,0.0363159,0.0357056,0.00335693,-0.0384521,-0.0466919,0.0198364,0.0170898
46,4,0.00701904,0.00762939,0.0198364,0.0256348,0.0457764,0.0231934,0.0411987,0.0332642,-0.00671387,-0.0250244,-0.032959,0.0140381,0.0369263
47,0,-0.017395,-0.0256348,0.0143433,0.071106,0.0350952,0.0338745,0.0421143,0.0372314,0.0228882,-0.0286865,0.0146484,0.00610352,0.00366211
47,1,0.00640869,0.0305176,0.0140381,0.0247192,0.0250244,0.0378418,0.0268555,0.0164795,0.0308228,-0.0128174,-0.0274658,-0.00152588,0.0244141
47,2,0.0357056,-0.0170898,-0.0140381,0.0256348,0.0323486,0.0415039,0.045166,0.0213623,0.0152588,-0.0192261,-0.0192261,0.0164795,0.0167847
47,3,0.050354,-0.00213623,0.0665283,0.022583,0.032959,0.0421143,0.0244141,0.0250244,-0.0289917,0.00549316,-0.0238037,-0.017395,0.0161743
47,4,0.03479,-0.0204468,0.0311279,0.022583,0.0354004,0.0305176,0.0299072,0.0338745,0.0213623,-0.00274658,0.0256348,0.000915527,0.0299072
48,0,0.0250244,-0.00152588,0.0292969,0.0289917,0.043335,0.0350952,0.0186157,0.0308228,0.0164795,0.0341797,-0.0439453,0.0198364,0.0283813
48,1,0.0299072,0.00946045,0.0134277,0.0201416,0.0247192,0.0143433,0.0473022,0.0366211,0.0219727,-0.027771,0.00183105,0.0210571,0.00396729
48,2,0.043335,-0.012207,0.0802612,0.0421143,0.020752,0.0424194,0.0302124,0.0326538,-0.0219727,-0.00335693,-0.0106812,0.022583,0.0149536
48,3,0.038147,-0.0595093,0.0183105,0.0274658,0.00732422,0.0338745,0.03479,0.0628662,0.0213623,0.00793457,-0.0140381,0.000305176,0.0152588
48,4,0.027771,-0.00335693,0.038147,0.0360107,0.0274658,0.0387573,0.0436401,0.0259399,0.0323486,-0.00915527,-0.0140381,0.0634766,0.0222778
49,0,-0.0180054,0.0234985,0.0299072,0.0283813,0.0234985,0.0231934,0.0436401,0.0189209,-0.0253296,0.0137329,-0.0106812,-0.0357056,0.0146484
49,1,-0.00244141,0.0363159,0.0137329,0.0268555,0.0100708,0.0234985,0.0378418,0.0537109,0.0210571,0.0296021,-0.0222778,0.0823975,0.0305176
49,2,0.0125122,0.0436401,0.0265503,0.00854492,0.0323486,0.0430298,0.0341797,0.0280762,0.0531006,0.0143433,-0.0234985,0.0253296,0.0112915
49,3,0.0164795,0.0283813,0.0204468,0.0250244,0.0149536,0.03479,0.0286865,0.0415039,0.0268555,0.0119019,-0.0576782,0.0244141,0.0195312
49,4,0.010376,0.00213623,0.0271606,0.0186157,0.0296021,0.00732422,0.0390625,0.0265503,0.0335693,0.0201416,-0.020752,0.00549316,0.0143433
50,0,0.0115967,0.00762939,0.0106812,0.010376,0.0332642,0.0234985,0.0262451,0.00915527,0.0396729,0.0228882,-0.0213623,0.0106812,0.0115967
50,1,0.0366211,0.0280762,0.00183105,-0.00671387,0.0247192,0.0259399,0.000610352,0.0253296,0.00244141,0.00518799,-0.0247192,0.00305176,0.0466919
50,2,0.0088501,-0.00518799,0.0250244,0.020752,0.0115967,0.0335693,-0.0186157,0.0305176,0.0137329,-0.0222778,-0.0213623,-0.0167847,0.0186157
50,3,0.00213623,-0.00732422,0.0317383,-0.020752,0.0112915,0.0326538,0.0296021,0.0213623,0.0109863,0.0491333,-0.0210571,0.00701904,0.012207
50,4,0.0143433,0.0167847,0.032959,-0.0262451,0.0363159,0.0234985,-0.0152588,0.0415039,0.0289917,0.06073,-0.015564,0.000305176,0.00274658
51,0,0.0204468,0.0198364,0.0143433,0.0140381,0.0357056,0.0238037,0.0518799,0.00518799,0.015564,0.032959,-0.0384521,-0.00976562,0.015564
51,1,-0.00427246,0.0314331,0.0158691,0.0265503,0.0302124,0.0149536,0.0442505,0.0308228,0.0250244,0.0259399,-0.0256348,0.00793457,0.0567627
51,2,0.0201416,0.0140381,0.00427246,0.0189209,0.0473022,0.0247192,0.0314331,0.0314331,0.0192261,0.0628662,-0.0268555,0.00244141,0.0170898
51,3,0.0183105,0.0210571,0.0198364,0.00976562,0.0216675,0.0869751,0.0427246,0.0289917,-0.0357056,0.0671387,-0.0253296,0.0268555,0.0238037
51,4,0.0326538,0.0128174,-0.00335693,0.0222778,0.0192261,0.0198364,0.0296021,0.0317383,0.0387573,0.0592041,-0.0222778,0.012207,0.012207
52,0,0.0210571,0.0140381,-0.0183105,0.000305176,0.0131226,0.0421143,0.0427246,0.0253296,0.0305176,0.0161743,-0.0418091,0.0189209,0.0930786
52,1,0.0192261,0.0265503,0.00579834,-0.00671387,0.0408936,0.0231934,0.020752,0.032959,0.043335,0.0772095,-0.0183105,0.0265503,-0.00183105
52,2,-0.0479126,0.0152588,0.0106812,0.0497437,0.0357056,0.0302124,0.0341797,0.0296021,0.0320435,0.0521851,-0.0335693,0.0134277,0.0259399
52,3,-0.0299072,-0.0189209,0.0234985,0.00610352,0.0231934,0.0314331,0.0305176,0.0360107,0.0253296,0.0491333,-0.0317383,-0.00549316,0.0177002
52,4,-0.0585938,-0.012207,0.00915527,0.0576782,0.0283813,0.0244141,0.0424194,0.032959,0.0561523,0.0576782,-0.0500488,0.0143433,0.0231934
53,0,-0.0341797,-0.0631714,0.0268555,0.00549316,-0.0332642,0.0305176,0.03479,0.0344849,0.0540161,0.032959,-0.0256348,0.0134277,0.0149536
53,1,0.00915527,-0.0106812,0.0088501,0.00671387,0.0296021,0.0445557,0.0308228,0.0216675,0.0335693,0.0170898,-0.038147,0.06073,0.0289917
53,2,0.0161743,0.0180054,0.0256348,0.0152588,0.0720215,0.0210571,0.0372314,0.0234985,0.0363159,0,-0.0253296,0.0369263,0.012207
53,3,0.0509644,-0.00335693,0.032959,0.0216675,-0.0216675,0.0299072,0.0259399,-0.00610352,0.0326538,-0.012207,-0.0222778,0.0341797,0.015564
53,4,0.12207,0.0384521,0.0338745,-0.015564,0.00488281,0.00793457,0.0311279,0.0189209,0.0354004,0.00305176,-0.0219727,0.0204468,0.0375366
54,0,0.0692749,0.0564575,0.06073,0.0112915,0.0271606,0.0296021,0.0262451,0.039978,0.0390625,0.0201416,-0.0201416,0.0146484,-0.00976562
54,1,0.0415039,0.00854492,0.0311279,0.0222778,0.0152588,0.032959,0.0299072,0.0595093,0.0259399,0.00701904,-0.067749,0.0186157,0.0244141
54,2,0.0491333,0.0335693,0.0375366,0.0167847,0.0274658,0.0634766,0.0396729,0.0344849,0.0717163,0.0253296,-0.0180054,0.0341797,0.0119019
54,3,0.0283813,0.088501,0.020752,0.0259399,0.0271606,0.0201416,0.0256348,0.03479,0.0375366,0.0109863,-0.0216675,0.0216675,0.0201416
54,4,0.0262451,0.0534058,0.0241089,0.00732422,0.0192261,0.00640869,0.0915527,0.0262451,0.0299072,0.0198364,-0.0143433,0.0201416,0.0216675
55,0,0.038147,0.0201416,0.0366211,0.0234985,0.0234985,0.0216675,0.0195312,0.0280762,0.0216675,-0.027771,-0.0189209,0.0180054,0.00305176
55,1,-0.03479,0.0192261,-0.0109863,-0.0372314,0.0189209,0.0146484,-0.00915527,0.0289917,0.0302124,0.0662231,0.00518799,0.0219727,0.0244141
55,2,0.0408936,-0.00732422,-0.0457764,0.000915527,0.0204468,0.0268555,0.0250244,0.0415039,0.0241089,0.0234985,-0.0292969,0.0189209,0.0201416
55,3,0.0167847,-0.0637817,-0.015564,0.0158691,0.0146484,0.0177002,0.0335693,0.0665283,0.0128174,0.00579834,0.000305176,0.0164795,0.0247192
55,4,0.00213623,-0.0405884,0.0125122,0.0213623,0.0201416,0.027771,0.0268555,0.0296021,0.0204468,0.0109863,-0.0128174,-0.0640869,0.0360107
56,0,0.0012207,-0.0430298,0.010376,0.0149536,0.0408936,0.0228882,0.0170898,0.0189209,0.00213623,0.0256348,-0.0186157,0.0253296,0.0286865
56,1,-0.010376,-0.0326538,-0.0497437,0.0183105,0.027771,0.0708008,0.0262451,0.0427246,0.0256348,0.0265503,-0.0128174,0.0170898,0.00762939
56,2,0.0125122,0.0131226,0.038147,0.0100708,0.0228882,0.015564,0.0137329,0.0323486,0.0280762,0.0271606,-0.0198364,0.0408936,0.0210571
56,3,0.0689697,-0.022583,0.0106812,-0.0180054,0.0250244,0.0186157,0.0579834,0.0515747,0.0265503,0.0271606,-0.0302124,0.0195312,0.0262451
56,4,0.0463867,-0.00610352,0.00183105,0.00488281,0.000610352,0.0244141,0.0222778,0.0531006,0.0143433,0.000305176,-0.0170898,0.000610352,0.0396729
57,0,0.00640869,0.090332,0.00549316,0.022583,0.0195312,0.0363159,0.0195312,0.0247192,0.0289917,0.0241089,-0.0198364,0.00976562,0.0253296
57,1,0.0314331,0.166016,0.020752,0.0115967,0.017395,0.0177002,0.0369263,0.0808716,0.0265503,-0.0125122,-0.00305176,0.0265503,0.0198364
57,2,0.0100708,0.140686,0.0247192,0.0115967,-0.0283813,0.0302124,0.0234985,0.0521851,0.0363159,-0.00640869,-0.0219727,0.0234985,-0.0244141
57,3,0.0567627,0.0344849,0.0158691,0.0189209,0.0106812,0.0149536,0.0164795,0.0259399,0.0128174,0.0115967,-0.017395,0.0518799,0.00946045
57,4,0.0509644,0.00427246,0.0234985,0.0350952,0.0335693,0.0299072,0.0244141,0.0271606,0.0311279,0.022583,-0.0256348,0.0332642,0.012207
58,0,0.0537109,-0.065918,0.0271606,0.0115967,0.0219727,0.022583,0.0198364,0.0387573,0.032959,-0.0286865,-0.0201416,0.0152588,-0.0238037
58,1,0.057373,-0.0476074,0.03479,0.010376,0.0210571,0.0509644,0.0134277,0.0390625,0.00152588,0.0354004,-0.0244141,0.0222778,0.0222778
58,2,0.0875854,-0.00488281,0.0311279,0.0369263,0.0146484,0.0262451,-0.0183105,0.043335,0.0289917,0.0131226,-0.0192261,0.0222778,0.0210571
58,3,0.0527954,0.0219727,0.0317383,0.0012207,0.0112915,0.0430298,0.0231934,0.0286865,0.03479,0.00244141,-0.0213623,0.0100708,0.0317383
58,4,0.0540161,0.071106,0.00457764,0.0213623,0.0195312,0.0192261,0.022583,0.0274658,0.0445557,0.0238037,-0.0238037,0.0268555,0.0253296
59,0,0.0689697,0.055542,0.00762939,0.00640869,0.0183105,0.0262451,0.0302124,0.039978,0.0442505,-0.00610352,-0.0344849,0.00915527,0.0137329
59,1,0.0595093,0.0759888,0.010376,0.0183105,0.0222778,0.0268555,0.0201416,0.0302124,0.0424194,0.00366211,-0.0149536,0.0234985,0.0341797
59,2,0.0219727,0.0662231,0.0241089,0.0131226,0.0234985,0.0234985,0.0170898,0.0198364,0.0415039,0.0180054,-0.0271606,0.03479,0.0192261
59,3,0.012207,0.0747681,0.0228882,0.0289917,0.0259399,0.0228882,0.027771,0.0216675,0.0350952,0.00244141,-0.00396729,-0.00793457,0.0112915
59,4,0.0183105,0.067749,0.0457764,0.0128174,0.00183105,0.0253296,0.0396729,0.0448608,0.0375366,0.012207,-0.0164795,0.0158691,-0.00305176
60,0,0.038147,-0.0445557,0.020752,0.00396729,0.0354004,0.0280762,0.0283813,0.03479,0.0390625,0.0109863,-0.0259399,0.045166,0.0363159
60,1,0.0323486,-0.0363159,0.00244141,0.0585938,0.0183105,0.0332642,0.027771,0.0195312,0.0253296,-0.0576782,-0.0561523,0.0247192,0.0134277
60,2,0.0112915,-0.0344849,0.0366211,0.0177002,0.0238037,-0.00915527,0.0280762,0.0289917,0.0262451,0.0228882,-0.0283813,0.0408936,-0.0195312
60,3,0.0149536,0.0549316,0.0189209,0.00427246,0.0259399,0.0790405,0.0332642,0.0424194,-0.0161743,0.0299072,-0.0317383,0.0219727,0.0186157
60,4,-0.000915527,0.0436401,0.00579834,0.00457764,0.0158691,0.0201416,-0.00793457,0.0296021,0.0283813,0.03479,-0.0231934,0.0219727,0.0189209
61,0,0.000915527,0.0723267,0.0012207,0.0201416,0.00946045,0.0241089,0.0119019,0.0415039,0.00488281,0.0158691,-0.0601196,0.0305176,0.00976562
61,1,-0.00671387,0.0814819,0.0256348,0.00518799,0.00793457,0.0314331,0.0213623,0.0531006,-0.0222778,0.0161743,-0.0259399,0.0900269,0.0152588
61,2,-0.00579834,0.0738525,0.00579834,0.0088501,0.0271606,0.0308228,0.000915527,0.0344849,0.0302124,-0.00183105,-0.0305176,0.0109863,0.0265503
61,3,-0.00732422,0.032959,0.00640869,0.000305176,0.0650024,0.000610352,0.0128174,0.0585938,0.0210571,-0.00396729,-0.0631714,0.0289917,0.0234985
61,4,0.0115967,0.0271606,0.00488281,-0.0265503,0.0186157,0.0274658,0.0231934,0.0286865,0.0268555,-0.0100708,-0.0292969,0.0128174,0.0244141
62,0,0.0372314,0.00213623,0.017395,0.0259399,0.0231934,0.0274658,0.0201416,0.0268555,0.0247192,-0.0549316,-0.0198364,0.0216675,0.0375366
62,1,0.0134277,0.0436401,0.0186157,0.012207,0.0180054,0.0326538,0.0378418,0.027771,0.0231934,-0.00732422,-0.0326538,0.0372314,0.0274658
62,2,0.0302124,0.0378418,0.015564,0.0170898,0.0112915,0.0830078,0.0274658,-0.00396729,0.0680542,-0.0143433,-0.0143433,0.0222778,0.0360107
62,3,0.0567627,0.0354004,0.0256348,0.0137329,0.0146484,0.0125122,0.0302124,0.020752,0.0256348,-0.0372314,-0.0299072,0.0396729,-0.045166
62,4,0.0363159,0.0527954,0.0189209,0.00854492,0.0112915,0.00366211,0.010376,0.00915527,0.0369263,-0.00335693,-0.0338745,0.045166,0.0271606
63,0,0.0357056,0.0344849,0.0143433,0.0131226,0.0164795,0.0305176,0.0256348,0.0494385,0.0332642,-0.00366211,-0.0335693,-0.010376,0.0305176
63,1,0.0393677,0.0238037,0.00396729,0.0131226,0.00946045,0.0164795,0.00854492,0.0296021,0.0250244,-0.0146484,-0.0274658,0.0256348,0.0292969
63,2,0.0418091,0.0299072,-0.0192261,0.0149536,0.0201416,-0.0137329,0.0228882,0.0161743,0.0454712,0.0164795,-0.0360107,0.0299072,0.017395
63,3,0.012207,0.0549316,0.0201416,0.0170898,0.00946045,0.0234985,0.0210571,0.0177002,0.0283813,0.00640869,-0.0210571,0.0231934,0.0177002
63,4,0.0219727,0.0308228,0.0164795,0.00823975,-0.0421143,0.00335693,0.0265503,0.0195312,0.0372314,0.0012207,-0.0360107,0.03479,0.0088501
64,0,0.065918,0.0476074,-0.00427246,0.0305176,0.0158691,0.0128174,0.0195312,0.0146484,0.027771,0.0149536,-0.0424194,0.0109863,0.0170898
64,1,0.0152588,0.0595093,0.0012207,0.00915527,0.038147,0.0482178,0.0296021,0.0415039,0.00579834,0.038147,-0.0323486,0.0143433,0.0119019
64,2,0.0289917,0.0436401,0.0189209,0.00915527,0.0234985,0.00244141,0.0292969,0.017395,0.0408936,0.0332642,-0.0335693,0.0305176,0.00640869
64,3,0.010376,0.0354004,0.0256348,0.0247192,-0.0689697,0.0274658,0.0198364,0.0247192,0.0143433,0.0488281,-0.0460815,0.0408936,0.0189209
64,4,0.0286865,-0.0238037,0.0463867,0.0180054,0.0143433,0.00915527,-0.00183105,0.0238037,-0.0100708,0.0531006,-0.0259399,0.0482178,0.0213623
65,0,0.0387573,-0.0881958,0.0515747,0.0268555,-0.00183105,0.00152588,0.0332642,0.0201416,0.0280762,0.0552368,-0.0320435,0.0286865,-0.0204468
65,1,0.0497437,-0.0860596,0.0296021,0.0259399,0.00579834,0.017395,0.0115967,0.0250244,0.0372314,0.0271606,-0.0332642,0.0180054,0.0308228
65,2,0.010376,-0.104065,0.0177002,0.0152588,0.0576782,0.0216675,0.0247192,0.0183105,0.0320435,0.0613403,-0.0363159,0.0186157,0.0231934
65,3,-0.0350952,-0.0497437,0.00579834,0.0622559,0.0131226,-0.00274658,0.0128174,0.0271606,0.0512695,0.0534058,-0.0317383,0.00762939,0.0375366
65,4,-0.0143433,-0.0415039,0.0115967,0.0262451,-0.010376,0.000915527,0.0131226,-0.0286865,0.0296021,0.0469971,-0.00396729,0.03479,0.0268555
66,0,-0.00793457,0.0341797,0.0296021,0.0421143,0.0280762,0.0146484,0.0167847,0.0320435,0.0378418,0.0299072,-0.0286865,0.0396729,0.09552
66,1,0.0332642,0.0991821,0.0274658,0.0109863,0.020752,0.0430298,0.0305176,0.0274658,-0.0131226,0.0341797,-0.0500488,0.0143433,0.0408936
66,2,0.00946045,0.0778198,0.0305176,0.017395,0.0210571,-0.00366211,0.0186157,0.00671387,-0.000610352,0.0448608,-0.0479126,0.0378418,0.0411987
66,3,0.00610352,0.0289917,0.0411987,-0.0125122,0.0192261,0.0109863,-0.00274658,0.0177002,-0.00305176,0.0357056,-0.0479126,0.0445557,0.0158691
66,4,0.0335693,0.065918,-0.0146484,0.0167847,0.0137329,-0.00549316,0.00671387,0.0134277,0.022583,0.0338745,-0.0357056,0.0338745,0.0213623
67,0,0.0854492,0.00213623,0.039978,-0.000915527,-0.000610352,0.0158691,-0.00244141,0.0305176,0.022583,0.0320435,-0.0390625,0.0326538,0.032959
67,1,0.0704956,-0.0164795,0.0363159,0.015564,-0.0436401,0.020752,0.0201416,0.0308228,0.0186157,0.0497437,-0.043335,0.0170898,0.0305176
67,2,0.0430298,0.0335693,-0.0186157,0.020752,0.0189209,0.0256348,0.0158691,0.0250244,0.0195312,0.108032,-0.0283813,0.00274658,0.0592041
67,3,0.0949097,0.107117,0.0469971,0.020752,0.0271606,0.0216675,0.0274658,0.0241089,0.0323486,0.111084,-0.0396729,0.0827026,0.0375366
67,4,0.0750732,0.102234,0.0405884,0.022583,0.0180054,0.0146484,0.0210571,0.020752,0.00854492,0.101929,-0.0253296,0.0289917,0.0234985
68,0,0.0796509,0.0750732,0.017395,0.0189209,0.00579834,-0.00335693,0.0161743,0.0152588,0.0463867,0.0878906,-0.0219727,0.0460815,0.0378418
68,1,0.0332642,0.0500488,0.0335693,0.012207,0.0201416,0.0119019,0.0161743,0.0271606,0.0204468,0.093689,-0.043335,0.0320435,0.020752
68,2,0.0708008,0.0177002,0.0170898,0.0302124,0.00854492,0.00854492,0.0384521,0.0228882,0.00396729,0.0805664,0.00640869,0.0286865,0.0393677
68,3,0.0753784,0.0186157,0.00671387,0.0149536,0.0128174,-0.00457764,0.0222778,0.0128174,0.055542,0.0985718,-0.0164795,0.00915527,0.0308228
68,4,0.0848389,0.0222778,0.00671387,0.0146484,0.0247192,0.00793457,0.012207,0.0088501,0.0180054,0.088501,-0.0640869,0.0402832,0.0311279
69,0,0.0839233,0.078125,-0.0119019,-0.00457764,0.0216675,0.0112915,0.0357056,0.0219727,0.0354004,0.108337,-0.039978,-0.00244141,0.00793457
69,1,0.00274658,0.050354,-0.0231934,0.0146484,0.00396729,-0.0012207,0.0222778,0.0161743,0.0259399,0.0738525,-0.0405884,0.0216675,0.0305176
69,2,-0.00549316,0.0427246,0.0512695,0.00305176,0.017395,-0.0448608,0.017395,0.00305176,0.0708008,0.0805664,-0.0219727,0.020752,0.0231934
69,3,0.0140381,0.0442505,-0.00396729,0.0167847,-0.00244141,0.0164795,0.0158691,0.0366211,0.0323486,0.0772095,-0.0323486,0.0192261,0.015564
69,4,0.0244141,0.0643921,0.0204468,0.0189209,0.010376,0.0195312,-0.0140381,0.0195312,0.0405884,0.0787354,-0.0366211,0.0167847,0.0299072
70,0,0.027771,0.0466919,0.0268555,0.0250244,0.0195312,0.0219727,0.00976562,0.0268555,0.0161743,0.0637817,-0.038147,0.0289917,0.0338745
70,1,0.017395,0.0454712,-0.0598145,0.0201416,0.00946045,-0.0335693,0.00701904,0.0131226,0.0408936,0.0689697,-0.0393677,0.0360107,0.0292969
70,2,0.0521851,0.067749,0.0247192,0.0234985,0.0241089,0.0241089,0.0189209,0.0787354,0.0253296,0.0738525,-0.0360107,0.0125122,0.0299072
70,3,0.0524902,0.0210571,0.0186157,0.0201416,0.0134277,0.00579834,0.0115967,0.0158691,0.0320435,0.0616455,-0.0283813,0.0323486,0.0390625
70,4,0.0509644,0.0622559,0.0372314,0.0311279,0.012207,0.0415039,0.0161743,0.0259399,0.0305176,0.062561,-0.0354004,0.0405884,0.0180054
71,0,0.050354,0.0357056,0.0543213,0.022583,0.0195312,-0.00396729,0,0.0161743,-0.0131226,0.0592041,-0.0256348,-0.0170898,0.0308228
71,1,0.055542,-0.000610352,0.0985718,0.0250244,0.0192261,0.0769043,0.0253296,0.0210571,0.0515747,0.055542,-0.0280762,0.0939941,0.0335693
71,2,0.0509644,0.00152588,0.0415039,0.0231934,0.0302124,0.0488281,0.0140381,0.0183105,0.0134277,0.039978,0.0112915,0.0335693,0.0250244
71,3,0.0610352,0.000305176,0.0964355,0.0283813,0.0137329,0.0201416,0.0137329,0.0323486,0.0268555,0.0369263,-0.0430298,0.0308228,0.0747681
71,4,0.0622559,0.0769043,0.0476074,0.0231934,0.0189209,0.0106812,0.022583,0.0216675,0.0308228,0.0241089,-0.0244141,0.0521851,0.0320435
72,0,0.057373,0.0204468,0.0476074,0.0411987,0.0198364,-0.00274658,0.032959,0.012207,0.0387573,0.0289917,-0.00396729,0.0393677,0.0402832
72,1,-0.0256348,0.0524902,0.0402832,-0.0375366,0.0164795,0.00823975,-0.0396729,0.010376,0.0244141,0.0296021,-0.0344849,0.0311279,0.0274658
72,2,0.0186157,0.0479126,0.0259399,0.0180054,0.022583,0.0268555,0.0469971,-0.00274658,0.0180054,0.0305176,-0.0411987,0.0244141,0.022583
72,3,0.00305176,0.0317383,0.0357056,0.0714111,0.00152588,0.0167847,0.0234985,0.00152588,0.00640869,0.0115967,-0.0372314,0.0241089,0.032959
72,4,0.0274658,-0.0177002,0.0296021,0.00946045,-0.0125122,0.0289917,0.0241089,0.0537109,0.00671387,0.0177002,-0.0283813,0.0109863,0.0357056
73,0,0.0354004,0.0167847,0.0405884,0.057373,0.00396729,0.0216675,-0.0119019,0.0180054,0.0192261,0.0888062,-0.0357056,0.0231934,0.0820923
73,1,0.0268555,0.00457764,0.0369263,0.0180054,-0.0326538,0.0289917,0.0256348,0.0335693,0.0195312,0.00823975,-0.0320435,0.0213623,0.0457764
73,2,0.020752,-0.000610352,0.0375366,0.015564,0.0170898,-0.0125122,0.0216675,0.0119019,0.0646973,0.00274658,-0.0299072,0.0283813,0.0366211
73,3,0.0106812,-0.00915527,0.0616455,0.00152588,0.0289917,0.03479,-0.0115967,0.0201416,0.00579834,0.0119019,-0.0299072,0.0396729,0.0500488
73,4,0.00152588,0.00305176,0.0335693,-0.0158691,0.0299072,0.00854492,0.0756836,0.00976562,0.0384521,-0.0299072,-0.0271606,0.0247192,0.0939941
74,0,0.0259399,0.00488281,0.0335693,0.0152588,0.0344849,0.0119019,0.0210571,0.0164795,0.0213623,0.0146484,-0.0466919,0.0253296,0.0952148
74,1,0.0283813,0.00457764,0.0494385,-0.0134277,0.0341797,0.0170898,0.0198364,0.0195312,0.0186157,0.00732422,-0.0164795,0.0259399,0.027771
74,2,0.0265503,0.0497437,0.0439453,0.0268555,0.0201416,0.0109863,0.0210571,0.0317383,0.0561523,0.017395,-0.0253296,0.0543213,0.0137329
74,3,0.0335693,0.0549316,0.0506592,0.0271606,0.0280762,0.0341797,0.00305176,-0.00549316,0.020752,0.0213623,-0.0140381,0.0393677,0.0247192
74,4,0.0216675,0.0683594,0.0341797,0.0234985,0.0198364,0.0247192,0.00976562,0.012207,0.012207,0.0436401,-0.0250244,0.0302124,0.0186157
75,0,0.00946045,-0.0805664,0.0469971,0.0292969,0.0195312,0.0195312,0.0088501,0.0134277,0.00976562,0.00305176,-0.020752,0.0442505,0.0350952
75,1,-0.00701904,-0.0314331,0.0292969,0.0231934,0.0598145,0.0299072,0.0231934,0.00305176,0.010376,0.00762939,-0.012207,0.0305176,0.0280762
75,2,0.0134277,-0.131836,0.0360107,0.0317383,-0.0134277,0.0143433,0.00549316,0.000610352,0.015564,0.0119019,-0.0262451,0.0265503,0.0674438
75,3,-0.0265503,-0.0592041,0.0302124,-0.0283813,0.0222778,0.0238037,0.0100708,0.00549316,0.00976562,0.0100708,-0.0216675,0.000915527,0.0256348
75,4,0.0506592,0.0485229,0.055542,0.032959,0.0357056,-0.0134277,0.0213623,0.0241089,0.0134277,-0.00152588,-0.0183105,0.0387573,0.0341797
76,0,0.0393677,0.158081,0.0592041,0.0308228,0.0320435,0.0274658,0.0228882,0.0195312,0.0222778,0.0134277,-0.0604248,0.050354,0.0354004
76,1,0.0372314,0.195618,0.0262451,0.0238037,0.0183105,0.0250244,0.0128174,0.0100708,0.017395,0.017395,-0.0201416,0.022583,0.0360107
76,2,0.0442505,0.135803,0.0222778,0.062561,0.032959,0.00854492,0.0369263,0.0219727,0.0183105,0.00701904,-0.0259399,0.0354004,0.00854492
76,3,0.0259399,0.100708,0.00640869,0.0564575,0.0274658,0.0262451,-0.0265503,0.017395,0.0241089,-0.0299072,-0.0320435,0.027771,0.0405884
76,4,0.03479,0.0756836,-0.00213623,0.032959,0.0222778,0.0180054,-0.00335693,0.0286865,0.0167847,-0.00335693,-0.0390625,0.0289917,0.0595093
77,0,0.0299072,0.107117,0.0112915,0.0424194,0.0149536,0.00915527,0.0167847,-0.00976562,0.0177002,-0.00579834,-0.0140381,0.0234985,0.0311279
77,1,0.00183105,0.0274658,0.00305176,0.0427246,0.0222778,0.0308228,0.0219727,0.0344849,0.0161743,0.0283813,-0.0210571,-0.00732422,0.0192261
77,2,0.0170898,-0.0180054,0.00488281,0.0500488,0.0302124,0.0204468,0.0228882,0.043335,0.0219727,-0.00762939,-0.0289917,0.0137329,0.0390625
77,3,0.00762939,-0.0473022,0.000610352,0.0289917,0.017395,0.0192261,0.0128174,0.0112915,0.0183105,-0.00671387,-0.0216675,0.00976562,0.0326538
77,4,0.00732422,-0.0714111,0.0119019,0.0317383,0.032959,0.0213623,0.0238037,-0.0134277,-0.00366211,-0.0180054,-0.0238037,0.0234985,0.0296021
78,0,0.0231934,-0.0402832,0.0244141,0.015564,0.0274658,0.0195312,0.0271606,0.015564,0.020752,-0.0198364,-0.0247192,0.0149536,0.032959
78,1,0.00976562,-0.0473022,0.0735474,0.0387573,0.0280762,0.0244141,0.020752,0.0198364,0.0170898,0.00793457,-0.027771,0.0134277,0.0341797
78,2,0.0115967,0.0164795,0.0360107,-0.012207,0.0271606,0.0119019,0.0262451,0.0161743,-0.00396729,-0.00366211,-0.0161743,0.0363159,0.0338745
78,3,0.0198364,0.043335,0.0350952,0.0479126,0.0997925,0.038147,0.0228882,0.00335693,0.0241089,-0.0164795,-0.0152588,0.0149536,0.0311279
78,4,0.00579834,0.0317383,0.0411987,0.0485229,0.0311279,0.0296021,0.0350952,0.0268555,0.0216675,-0.017395,-0.0354004,0.0320435,0.0524902
79,0,0.00762939,0.0497437,0.0457764,0.043335,0.0384521,0.0296021,0.0177002,0.0857544,0.0180054,-0.010376,-0.00671387,0.0161743,0.0430298
79,1,0.0189209,0.0582886,0.0390625,0.0393677,0.0787354,0.0131226,0.015564,0.000610352,0.0262451,-0.0152588,-0.0305176,0.0308228,0.0460815
79,2,0.0125122,0.0195312,0.0430298,0.0250244,0.0320435,0.0177002,0.0247192,-0.0296021,0.0299072,0.00213623,-0.0262451,0.0308228,0.0375366
79,3,0.0149536,0.0186157,0.015564,0.0335693,0.027771,0.0216675,0.0201416,0.0115967,0.0201416,0.00152588,-0.0299072,0.00549316,0.0332642
79,4,0.0408936,0.0650024,0.0198364,0.0244141,0.0286865,0.027771,0.0314331,0.0164795,0.0198364,0.0210571,-0.0375366,0.0219727,0.0836182
80,0,0.0213623,0.128174,0.0354004,0.0250244,0.0311279,-0.0183105,0.00946045,0.00427246,0.017395,0.00488281,-0.0231934,0.0198364,0.043335
80,1,-0.00610352,0.130615,0.0262451,0.0149536,0.0393677,0.0241089,0.0256348,0.00732422,0.0210571,0.00427246,-0.0088501,0.03479,0.0302124
80,2,0.0189209,0.0500488,0.017395,0.0360107,0.012207,0.0167847,0.0186157,0.0305176,0.010376,-0.000610352,-0.0244141,0.0335693,0.0476074
80,3,0.0183105,0.0561523,-0.0289917,0.0363159,0.0265503,-0.0106812,0.0457764,0.012207,0.0140381,-0.0332642,-0.0201416,0.0274658,0.0704956
80,4,0.00518799,0.0357056,0.0363159,0.03479,0.0231934,0.03479,0.0283813,0.00396729,0.0286865,-0.0338745,-0.0195312,0.0183105,0.0479126
81,0,-0.0219727,0.0161743,0.0244141,0.0109863,0.0405884,0.0222778,0.0256348,0.012207,0.0115967,0.00671387,-0.0271606,0.0201416,0.0335693
81,1,-0.0497437,0.00457764,0.0366211,0.0344849,0.0289917,0.0271606,0.015564,0.0158691,0.00213623,0.00793457,-0.0317383,0.0210571,0.00396729
81,2,-0.0259399,-0.0274658,0.0189209,0.0302124,0.0234985,0.0268555,0.0253296,0.0265503,0.00549316,0.00610352,-0.0177002,0.0869751,0.0274658
81,3,0.00183105,-0.0289917,0.0216675,0.0308228,0.0344849,0.0341797,0.022583,0.0238037,0.00610352,0.0177002,-0.0256348,0.0317383,0.0210571
81,4,-0.0140381,-0.0787354,0.0418091,0.0415039,0.0634766,0.0280762,0.0302124,0.0183105,0.0204468,0.0289917,-0.020752,0.0289917,0.0256348
82,0,-0.0158691,-0.00366211,0.0415039,0.0311279,0.0387573,0.0244141,0.0320435,0.0177002,0.0183105,0.00518799,-0.0357056,0.0189209,0.0177002
82,1,0.0680542,0.00671387,0.0457764,0.043335,0.0195312,0.00762939,0.0198364,0.0195312,0.0131226,0.0158691,-0.0170898,0.0402832,0.0247192
82,2,0.0942993,0.0598145,0.0283813,0.0372314,0.0363159,-0.00946045,0.0247192,0.0314331,0.0454712,0.0012207,-0.0186157,0.0305176,0.0109863
82,3,0.0567627,0.0769043,0.043335,0.0396729,0.0320435,0.00762939,0.0250244,0.027771,-0.0012207,-0.00640869,-0.0115967,0.0186157,0.0262451
82,4,0.038147,0.0506592,0.0494385,0.0415039,0.0231934,0.0219727,0.0128174,0.0128174,0.00244141,0.012207,0.0177002,0.0292969,0.0262451
83,0,0.00854492,0.0143433,0.0350952,0.0546265,0.0366211,0.0228882,0.0274658,0.0201416,-0.0476074,0.0134277,-0.0149536,0.062561,0.0204468
83,1,-0.0286865,0.00610352,0.0234985,0.0387573,0.0320435,0.0216675,0.022583,-0.00274658,0.0115967,0.0177002,-0.0012207,0.0106812,0.0140381
83,2,0.0204468,0.055542,0.0332642,0.0158691,0.0201416,0.0350952,0.0454712,0.0375366,0.00488281,-0.000915527,-0.00793457,0.0210571,0.0140381
83,3,0.0265503,0.0418091,0.0372314,0.0665283,0.03479,0.0283813,0.0393677,0.0146484,0.0106812,0.0195312,-0.0512695,0.0152588,0.00671387
83,4,0.00457764,0.0128174,0.0100708,0.0305176,0.0378418,0.0280762,0.050354,0.0189209,0.00457764,0.0161743,-0.0210571,0.0250244,0.00305176
84,0,0.0244141,0.0384521,0.0308228,0.0201416,0.020752,0.0128174,0.0393677,0.0219727,0.0088501,0.0137329,-0.0219727,0.00579834,0.0131226
84,1,0.03479,0.0686646,0.03479,0.0402832,0.0228882,-0.00183105,0.0341797,0.0177002,0.00366211,0.00610352,-0.0210571,0.0170898,0.0271606
84,2,0.0549316,0.0762939,0.0189209,0.0323486,0.0299072,0.0210571,-0.000305176,0.0189209,0.0354004,-0.0198364,-0.0366211,0.00671387,-0.0195312
84,3,0.0311279,0.121765,0.0167847,0.0350952,0.0262451,0.0442505,0.0296021,-0.0134277,0.0189209,0.0143433,-0.0247192,0.0149536,0.0164795
84,4,0.0256348,0.0421143,0.00579834,0.0308228,0.0234985,0.0445557,0.0283813,0.0247192,-0.0244141,0.0100708,-0.0222778,0.0323486,0.0109863
85,0,0.0128174,0.00946045,0.020752,0.0271606,0.0335693,0.0146484,0.0357056,0.0299072,0.00305176,-0.010376,-0.0238037,0.0216675,-0.0186157
85,1,0.00427246,0.00213623,-0.0335693,0.0384521,0.0338745,0.0811768,0.0183105,0.0167847,0.00946045,-0.000610352,-0.0198364,0.012207,0.0280762
85,2,0.0161743,0.03479,0.057373,0.0231934,0.0238037,0.0994873,0.0341797,0.020752,0.0799561,-0.00610352,-0.0241089,0.00610352,0.0302124
85,3,-0.00366211,-0.00823975,-0.00823975,0.0286865,0.06073,0.0354004,0.0195312,0.0228882,0.0216675,0.00305176,-0.0302124,0.017395,0.0387573
85,4,-0.0228882,0.0152588,0.0192261,0.0274658,0.0521851,0.0299072,0.0326538,0.0231934,0.0390625,0.00579834,-0.0164795,0.0326538,0.0448608
86,0,-0.0106812,0.00396729,0.0234985,0.0363159,0.0680542,0.0378418,0.0189209,0.00427246,0.0265503,0.00274658,-0.0149536,0.0201416,0.0134277
86,1,-0.0112915,-0.020752,0.027771,0.0131226,0.0262451,0.0469971,0.0418091,0.039978,0.0222778,0.020752,-0.0140381,0.0292969,0.0302124
86,2,-0.00793457,-0.0415039,0.0323486,0.00671387,0.0790405,0.0222778,0.0244141,-0.0143433,0.0170898,0.0222778,-0.0106812,0.0231934,0.0186157
86,3,-0.00518799,-0.0485229,0.0390625,0.0271606,0.032959,0.0283813,0.00244141,0.0213623,0.0253296,0.0125122,-0.00762939,0.00549316,0.0164795
86,4,0.00579834,-0.0738525,0.0320435,0.0204468,0.0320435,0.0204468,0.010376,0.0250244,0.0161743,0.0317383,-0.00335693,0.0152588,0.0842285
87,0,0.0799561,-0.0643921,0.0286865,0.0234985,0.0259399,0.0372314,-0.0241089,0.022583,0.0228882,0.109863,-0.0354004,0.0186157,0.00335693
87,1,0.0460815,-0.0469971,0.0366211,0.00427246,0.0216675,0.020752,0.022583,0.027771,0.0283813,0.0161743,-0.0088501,0.0213623,0.027771
87,2,0.0259399,0.00762939,0.0445557,0.0244141,0.0170898,0.015564,0.0332642,0.0152588,0.0317383,0.00427246,-0.0186157,0.0234985,0.0210571
87,3,0.0344849,0.0753784,0.0390625,0.0238037,0.0466919,0.0326538,0.0222778,0.0878906,0.0183105,0.0106812,-0.0439453,0.0323486,0.0280762
87,4,0.0350952,0.0863647,0.0338745,0.0189209,0.0286865,0.0366211,0.0421143,0.0161743,0.0167847,-0.0164795,-0.00732422,0.015564,0.0170898
88,0,0.0283813,0.0662231,0.0299072,0.0177002,0.0332642,-0.0198364,0.0387573,0.0234985,0.0491333,0.0152588,-0.012207,0.0119019,0.0268555
88,1,0.0311279,0.0738525,0.00152588,0.0308228,0.020752,0.0872803,0.0250244,0.0357056,0.0283813,0.0180054,-0.0299072,0.0299072,0.0448608
88,2,0.0375366,0.0112915,0.0167847,0.00915527,0.0317383,0.0314331,0.00457764,0.0234985,-0.0216675,0.0161743,-0.0180054,0.00701904,0.0320435
88,3,-0.0088501,-0.010376,0.0335693,0.0305176,0.0549316,0.0305176,0.0564575,0.0314331,0.0164795,0.0186157,-0.017395,0.0161743,0.0143433
88,4,-0.0161743,-0.0201416,0.0262451,0.0320435,0.0344849,0.0280762,-0.0109863,0.0234985,0.0201416,-0.00976562,-0.0442505,0.00732422,0.0106812
89,0,-0.0442505,0.0653076,0.000305176,0.0012207,0.0457764,0.0341797,0.0592041,0.012207,0.0198364,0.0186157,-0.0161743,0.0198364,0.0314331
89,1,-0.0390625,0.0335693,-0.0289917,0.0228882,0.0292969,0.0219727,0.0363159,0.0280762,0.0299072,0.0213623,-0.0125122,0.0167847,0.0875854
89,2,-0.00579834,0.0341797,0.0128174,0.0189209,0.0198364,0.0280762,0.039978,0.0280762,0.00823975,0.0213623,-0.0299072,0.06073,0.010376
89,3,0.0558472,0.0177002,0.0213623,0.0213623,0.0717163,0.0396729,0.0314331,0.0488281,0.0283813,0.0280762,-0.017395,0.0210571,0.0131226
89,4,0.088501,0.00823975,0.00396729,0.0189209,0.022583,0.0442505,0.0338745,0.0112915,0.0112915,0.017395,-0.0231934,0.0219727,0.0195312
90,0,0.0814819,0.0296021,0.0216675,0.057373,0.0485229,0.0228882,0.0473022,0.0405884,0.0177002,0.0256348,-0.0137329,0.0476074,0.0234985
90,1,0.0357056,0.0427246,0.0106812,0.0268555,0.0344849,0.022583,0.0494385,0.0192261,0.0161743,0.00457764,-0.03479,0.0170898,0.0234985
90,2,0.00152588,0.0500488,0.0299072,0.0231934,0.0274658,-0.00762939,0.0234985,0.022583,0.0671387,0.0317383,-0.0250244,0.0643921,0.0341797
90,3,-0.00579834,0.0338745,0.00427246,0.0213623,0.0378418,0.0384521,0.0247192,0.0137329,0.0161743,0.0259399,-0.000915527,0.0222778,0.0274658
90,4,-0.0149536,-0.0167847,0.0137329,0.00305176,0.0482178,0.0375366,0.0186157,0.00457764,0.0238037,0.0192261,-0.0158691,0.0210571,0.0317383
91,0,-0.0274658,0.0338745,0.0430298,0.0183105,0.0228882,-0.0341797,0.0308228,0.0271606,0.000915527,0.0256348,-0.0137329,0.010376,0.0317383
91,1,-0.0100708,0.0332642,0.00640869,0.0241089,0.0466919,0.0430298,0.0238037,0.027771,0.0125122,-0.00183105,-0.00152588,0.00946045,0.0436401
91,2,0.0393677,0.0576782,0.027771,0.0152588,0.0335693,0.0393677,0.0524902,0.0357056,0.0158691,0.0338745,-0.0109863,0.0183105,0.00366211
91,3,0.0360107,-0.00946045,0.032959,0.0137329,0.0259399,0.0326538,0.00366211,0.032959,0.0241089,0.071106,-0.0210571,0.0149536,0.0189209
91,4,-0.000915527,-0.0378418,0.0241089,0.0259399,0.0280762,0.0311279,0.0308228,0.012207,0.010376,0.0219727,-0.0146484,0.0149536,0.00976562
92,0,0.0335693,-0.0823975,-0.0286865,0.0170898,0.0286865,0.0421143,0.0115967,0.0357056,0.015564,-0.00213623,-0.0186157,0.0125122,0.0152588
92,1,0.039978,-0.065918,0.0296021,0.0302124,-0.0201416,0.0213623,0.0238037,0.0262451,0.00579834,0.0350952,-0.0158691,-0.00488281,0.00457764
92,2,0.0357056,-0.0360107,0.0280762,0.0479126,0.0320435,0.0305176,0.0088501,0.0292969,0.00640869,0.0149536,-0.0143433,0.0088501,-0.00152588
92,3,0.022583,0.0234985,0.0418091,0.0170898,0.0228882,0.0311279,0.0314331,0.0280762,0.00671387,0.0302124,-0.0170898,0.0704956,-0.020752
92,4,0.0366211,0.000610352,0.0244141,0.0152588,0.0357056,0.0564575,0.045166,0.0335693,0.0476074,0.0164795,-0.00701904,0.0134277,0.0128174
93,0,0.0506592,-0.050354,0.0579834,0.0393677,0.0491333,0.0604248,0.0360107,0.0234985,0.0488281,0.0268555,-0.0247192,0.0363159,0.0115967
93,1,0.0332642,-0.0524902,0.0372314,0.0314331,0.0289917,0.0137329,0.0231934,0.00915527,-0.000610352,0.0131226,-0.012207,0.0131226,0.00335693
93,2,0.0332642,0.0198364,-0.0256348,0.0338745,0.020752,-0.0112915,0.0384521,0.0457764,0.0250244,0.0186157,-0.0216675,0.0210571,0.0393677
93,3,0.0271606,-0.0180054,0.0204468,0.0201416,-0.00183105,0.0454712,0.027771,0.0341797,0.0204468,0.0177002,-0.0234985,0.0228882,0.0219727
93,4,0.0137329,-0.065918,0.00762939,0.0219727,0.0231934,0.0289917,0.0326538,0.0256348,0.0372314,0.0152588,-0.0128174,0.0271606,0.0183105
94,0,-0.0964355,-0.078125,0.00671387,-0.0387573,0.0167847,0.0256348,0.032959,0.0256348,0.0320435,0.0183105,-0.0128174,0.0149536,0.00244141
94,1,-0.0228882,0.00396729,0.0515747,0.0360107,0.0283813,0.0515747,0.0360107,0.0186157,0.0183105,0.0338745,-0.0262451,0.020752,0.00640869
94,2,0.010376,0.0598145,0.0314331,0.0497437,0.0448608,0.0167847,0.03479,0.0390625,0.0283813,0.00274658,-0.0350952,0.0216675,0.0250244
94,3,0.0366211,0.108948,0.0335693,0.0201416,0.0823975,0.0314331,0.0491333,0.0445557,0.0366211,0.0384521,-0.0198364,0.010376,0.0195312
94,4,0.0363159,0.154724,0.0183105,0.0390625,0.0183105,0.0125122,0.0857544,0.0271606,0.0469971,0.0405884,-0.0186157,0.0384521,-0.0387573
95,0,0.0344849,0.169373,0.0204468,0.0192261,0.0759888,0.0292969,0.0125122,0.0741577,0.0326538,0.0302124,-0.0143433,0.012207,0.0177002
95,1,0.0396729,0.167236,0.00427246,0.0228882,0.0320435,0.0219727,0.0430298,0.0210571,0.0137329,0.0106812,-0.0238037,0.0125122,0.00671387
95,2,0.0317383,0.122681,-0.0106812,0.0244141,0.0280762,0.0546265,0.0338745,0.0177002,0.0158691,0.012207,-0.0286865,-0.010376,0.0106812
95,3,0.0473022,0.078125,0.010376,0.0616455,0.0323486,0.043335,-0.00335693,0.0332642,0.0390625,0.0564575,-0.0448608,0.0177002,0.0271606
95,4,0.00701904,0.0552368,0.00946045,0.00732422,0.0219727,0.0183105,0.0259399,0.0265503,0.0366211,0.0238037,-0.0262451,0.0146484,-0.0253296
96,0,0.0280762,0.0158691,0.0146484,-0.0204468,0.00915527,0.0234985,0.0256348,0.0524902,0.0244141,0.0106812,-0.0167847,0.00610352,0.0152588
96,1,-0.00335693,0.0234985,0.0289917,-0.000610352,0.0296021,0.0360107,0.0585938,0.0219727,0.0192261,0.00244141,-0.0088501,0.00152588,0.0253296
96,2,0.0012207,-0.0299072,0.0115967,0.0195312,0.00640869,0.038147,0.039978,0.045166,0.0183105,0.0198364,-0.0259399,0.0201416,0.0213623
96,3,0.0109863,0.0497437,-0.0125122,0.00579834,0.0302124,0.0137329,0.0274658,0.0146484,0.0357056,0.0152588,-0.015564,0.0180054,0.0143433
96,4,0.0201416,0.00793457,0.000305176,-0.00396729,0.0396729,0.0244141,0.0299072,0.0280762,0.0363159,0.0137329,-0.0302124,-0.0140381,0.0180054
97,0,0.0164795,-0.0585938,0.0137329,0.022583,0.0125122,0.0161743,0.0311279,0.0274658,0.0180054,0.0088501,-0.0131226,0.00610352,0.00549316
97,1,0.0119019,-0.0643921,0.0167847,0.0183105,0.0402832,0.0259399,0.0338745,0.017395,0.00640869,0.0180054,-0.0198364,0.0192261,0.017395
97,2,-0.0204468,-0.0674438,0.0146484,0.0125122,0.0231934,0.0299072,0.0424194,0.0375366,0.0158691,0.0109863,-0.0454712,0.00946045,-0.0012207
97,3,0.0137329,-0.0686646,0.017395,0.0161743,0.0271606,0.0720215,0.0189209,0.0308228,0.0250244,0.00823975,-0.0158691,0.00518799,0.0164795
97,4,0.0354004,-0.0402832,0.0170898,0.0128174,0.0259399,0.0198364,0.0372314,0.0311279,0.0280762,0.0268555,-0.0311279,0.015564,0.0125122
98,0,0.0131226,-0.0427246,0.0164795,0.0238037,0.0299072,0.0460815,0.0344849,0.032959,0.0195312,0.0274658,-0.0115967,0.0158691,0.0427246
98,1,0.0241089,0.0115967,0.0402832,0.0158691,0.039978,0.0247192,0.0228882,0.0250244,0.0256348,-0.0317383,-0.0167847,0.0161743,-0.0213623
98,2,0.0299072,0.0680542,0.0280762,0.022583,0.0384521,0.0369263,0.0134277,0.03479,0.0408936,0.0149536,-0.0192261,0.0189209,0.0280762
98,3,0.0106812,0.0500488,0.0427246,0.0247192,0.0228882,0.0250244,0.00854492,0.0283813,0.0286865,0.0552368,-0.0189209,0.0189209,0.0228882
98,4,0.00152588,0.0698853,0.00457764,0.0183105,0.0332642,0.0128174,0.038147,0.00274658,0.0350952,0.0274658,-0.0186157,0.017395,0.0228882
99,0,-0.000915527,0.0717163,-0.0100708,-0.0189209,0.0296021,0.0296021,0.038147,0.0244141,0.0350952,0.0463867,-0.0238037,0.00976562,0.0253296
99,1,0.00823975,0.0314331,-0.0231934,0.0180054,0.0363159,0.0012207,0.0216675,0.0570679,0.0460815,0.0164795,-0.0192261,0.0238037,0.0393677
99,2,0.0180054,0.0250244,-0.00854492,0.0143433,0.0338745,0.0415039,0.0286865,0.0344849,0.0234985,0.0280762,-0.0372314,0.00213623,0.0201416
99,3,0.0088501,0.0790405,0.010376,0.0198364,-0.0442505,0.017395,0.0366211,0.0634766,0.0259399,0.0201416,-0.0149536,0.0106812,0.027771
99,4,0.0134277,0.0656128,0.0253296,0.0158691,0.0335693,0.0100708,0.0335693,0.0283813,0.027771,0.00396729,-0.017395,0.0241089,0.0366211
100,0,0.00213623,0.0161743,-0.0219727,0.020752,0.015564,0.0201416,0.0268555,0.0582886,0.0396729,0.0198364,-0.0354004,0.0216675,0.0411987
100,1,-0.0100708,-0.00671387,0.0384521,0.00213623,0.0305176,0.00701904,-0.00335693,0.0405884,0.0476074,0.0119019,-0.0161743,-0.00396729,0.00183105
100,2,-0.00335693,0.0109863,0.0088501,0.0201416,-0.0256348,0.0448608,0.0415039,0.0320435,0.0396729,0.00640869,-0.0216675,-0.00732422,0.0314331
100,3,-0.0164795,0.000610352,0.012207,-0.0265503,0.0219727,0.0344849,0.0390625,0.0326538,0.022583,0.0915527,-0.0164795,0.0100708,-0.0354004
100,4,-0.000610352,-0.00915527,-0.00946045,0.0146484,-0.0268555,0.0305176,0.0378418,0.0610352,0.0186157,0.0341797,-0.0253296,0.027771,0.0241089
101,0,-0.00732422,0.0247192,0.0134277,0.0210571,0.0213623,0.0311279,0.0231934,0.0344849,0.0289917,0.0149536,-0.0238037,-0.00457764,0.0186157
101,1,0.0134277,0.0457764,0.0152588,0,0.0479126,0.0396729,0.0332642,0.0411987,0.038147,0.0292969,-0.0195312,0.0366211,0.00671387
101,2,0.0177002,0.0119019,0.0289917,0.0192261,0.0286865,0.0360107,0.0250244,0.0384521,0.0296021,0.00640869,-0.0167847,0.0253296,-0.000610352
101,3,0.0247192,-0.00946045,0.0292969,0.0231934,0.0274658,0.0274658,0.0170898,0.0521851,0.0357056,-0.0378418,-0.0259399,0.0262451,0.0100708
101,4,0.0341797,-0.0317383,0.0354004,0.0198364,0.0213623,0.00488281,0.0408936,0.0283813,0.0360107,0.00823975,-0.0302124,0.0219727,0.0152588
102,0,-0.0393677,-0.0189209,0.020752,0.0286865,-0.00549316,0.0152588,0.0216675,0.0186157,0.0360107,0.0219727,-0.055542,0.0357056,0.0195312
102,1,0.017395,-0.00732422,0.0939941,0.0134277,0.00701904,0.0875854,0.0393677,0.0402832,0.0930786,0.0341797,-0.0296021,0.0476074,0.0100708
102,2,0.0192261,0.0387573,0.00152588,0.00518799,0.015564,0.0350952,0.0143433,0.027771,0.0332642,0.00457764,-0.0320435,0.0189209,0.0112915
102,3,0.0112915,0.0698853,0.017395,0.0192261,0.0210571,0.0228882,0.0289917,0.0210571,0.0299072,0.0860596,-0.0204468,0.00549316,0.0631714
102,4,0.0274658,0.0601196,-0.00549316,0.0131226,0.00762939,0.0234985,0.0387573,0.0234985,0.0372314,0.0311279,-0.0320435,0.0109863,-0.00366211
103,0,0.0167847,0.0439453,0.0234985,0.0314331,0.00549316,0.0250244,0.0457764,0.0326538,0.0430298,-0.00549316,-0.0296021,0.0198364,-0.0265503
103,1,0.00427246,-0.00396729,-0.00976562,0.0088501,0.000610352,0.0265503,0.0292969,0.0305176,0.0393677,0.0442505,-0.043335,-0.020752,0.0167847
103,2,0.0308228,-0.0326538,-0.00152588,0.0167847,0.0167847,0.00640869,0.0231934,0.0299072,0.0372314,0.0372314,-0.00854492,0.0256348,0.0213623
103,3,0.0350952,0.0161743,-0.00549316,0.0296021,0.0244141,0.00762939,0.0213623,0.0186157,0.0259399,0.0201416,-0.0195312,0.0204468,0.017395
103,4,0.0299072,-0.00976562,0.00701904,0.0213623,0.0234985,0.0186157,0.0375366,0.0247192,0.0344849,0.0384521,-0.00579834,0.0161743,0.00457764
104,0,0.0241089,0.00213623,0.022583,0.017395,0.0210571,-0.0012207,0.0384521,0.022583,0.0509644,0.0595093,-0.0216675,0.0228882,0.00366211
104,1,0.0314331,0.00427246,0.017395,0.0143433,0.0088501,0.0604248,0.0366211,0.022583,-0.00396729,0.0378418,-0.0280762,0.0201416,0.0152588
104,2,0.0518799,0.0326538,0.0146484,0.00976562,0.0088501,0.0350952,0.045166,0.0198364,0.0259399,0.00518799,-0.0204468,0.00732422,0.0247192
104,3,0.0299072,0.0686646,0.0128174,0.0164795,0.0140381,0.0280762,0.0436401,0.0152588,0.0326538,0.0216675,-0.0234985,0.0167847,-0.0222778
104,4,0.0280762,0.0552368,0.0469971,0.0177002,0.0259399,0.0323486,0.0323486,0.0344849,0.0299072,0.0219727,-0.0396729,0.0119019,0.015564
105,0,0.057373,0.0274658,0.00640869,0.00823975,0.0180054,0.0106812,0.017395,0.0280762,0.0320435,0.0344849,0.00823975,0.0189209,0.0320435
105,1,0.0320435,0.0109863,-0.00549316,0.020752,-0.0360107,0.0253296,0.0112915,0.0473022,0.0296021,0.0314331,0.00457764,0.0415039,0.0390625
105,2,0.0421143,-0.0109863,0.0109863,0.0164795,0.0500488,0.0247192,0.0164795,0.0354004,0.0256348,0.0357056,-0.0527954,0.0393677,0.0253296
105,3,-0.0250244,-0.032959,0.0119019,0.0790405,0.0302124,0.0146484,0.0765991,0.0262451,0.0314331,0.0701904,-0.0164795,0.0219727,0.0128174
105,4,-0.0415039,-0.00915527,0.0286865,0.0271606,0.0088501,0.00488281,0.0201416,0.0234985,0.0473022,0.0335693,-0.0283813,0.0161743,-0.0308228
106,0,0.00854492,0.015564,0.0152588,0.0161743,0.0509644,0.00701904,0.0253296,0.0439453,0.00946045,0.038147,-0.0274658,0.0247192,0.0332642
106,1,0.0628662,0.0210571,0.0143433,0.0296021,0.00671387,0.0213623,-0.00244141,0.0357056,0.0271606,0.0750732,-0.0344849,0.0396729,0.0311279
106,2,0.0958252,-0.0177002,0.0372314,0.0180054,-0.0286865,0.00915527,0.0210571,0.0439453,0.0112915,0.0271606,-0.0259399,0.0326538,0.015564
106,3,0.0970459,0.0527954,0.0274658,0.0411987,0.010376,0.0289917,0.0161743,0.050354,-0.015564,0.0335693,-0.0299072,0.0445557,0.00427246
106,4,0.138245,0.0415039,-0.0167847,0.0192261,0.0128174,0.0268555,0.032959,0.0317383,0.0372314,0.0482178,-0.0354004,0.0332642,-0.0479126
107,0,0.0900269,-0.0204468,-0.010376,0.0106812,0.0234985,0.072937,0.0228882,0.0213623,0.0469971,0.0265503,-0.0338745,0.00579834,0.0259399
107,1,0.0421143,-0.0125122,0.0720215,0.0125122,0.0152588,-0.0106812,0.0134277,0.00946045,0.000915527,0.0338745,-0.0372314,-0.0280762,0.0128174
107,2,0.0134277,0.0274658,0.0274658,0.0210571,0.0140381,0.015564,0.0170898,0.0198364,0.0286865,0.012207,-0.0280762,0.0195312,0.0402832
107,3,0.039978,0.0299072,0.0259399,0.0485229,0.0180054,0.0326538,0.0109863,0.0476074,0.017395,0.0341797,-0.0317383,0.0234985,0.0177002
107,4,-0.00549316,-0.0463867,0.017395,0.0161743,-0.0338745,0.0177002,0.0189209,0.083313,0.0115967,0.027771,-0.0469971,0.0183105,0.0424194
108,0,-0.0115967,-0.0250244,0.0186157,0.0415039,0.0292969,0.0177002,0.00518799,0.0247192,0.0338745,0.0488281,-0.0292969,0.0210571,0.0152588
108,1,0,-0.0622559,0.0350952,0.0283813,0.0662231,0.0210571,0.0332642,0.0195312,0.0189209,0.0378418,-0.0323486,0.0302124,0.0189209
108,2,-0.00671387,-0.0292969,0.020752,0.0189209,0.0125122,0.00152588,0.0143433,0.0201416,0.0344849,0.0299072,-0.0335693,-0.0146484,0.0357056
108,3,0.0100708,-0.0485229,0.0292969,0.0137329,0.00427246,0.0167847,0.0164795,0.0402832,0.0317383,0.032959,-0.020752,0.032959,0.0805664
108,4,0.0845337,-0.0296021,0.0210571,0.0564575,0.0250244,0.0170898,-0.0430298,0.0314331,0.022583,0.0732422,-0.0323486,0.0262451,-0.0265503
109,0,0.0817871,-0.0177002,0.000610352,0.00762939,0.0152588,0.0274658,0.0241089,0.0250244,0.0265503,0.0314331,-0.0262451,0.0100708,0.0158691
109,1,0.0930786,0.0762939,-0.00701904,-0.000305176,0.022583,0.012207,0.0183105,0.0274658,0.03479,0.0427246,-0.0332642,0.0350952,0.0137329
109,2,0.085144,0.162659,0.0186157,0.0360107,0.0115967,0.0170898,0.0393677,0.0390625,0.017395,0.00488281,-0.0296021,0.0210571,-0.00366211
109,3,0.067749,0.22644,0.0167847,0.0369263,0.0125122,0.0460815,0.0354004,0.0302124,0.027771,0.0518799,-0.0256348,0.0308228,-0.0369263
109,4,0.0430298,0.128174,0.0576782,0.0238037,0.0164795,0.0512695,0.017395,0.00946045,-0.00396729,0.015564,-0.0253296,-0.0128174,0.0134277
110,0,0.0280762,0.0488281,0.0161743,0.0195312,0.0140381,0.0723267,0.0262451,0.017395,-0.032959,0.0366211,-0.0338745,0.0241089,0.0143433
110,1,0.0177002,0.0280762,0.00579834,0.0183105,0.0189209,0.038147,0.0323486,0.0271606,0.0292969,0.0183105,-0.0317383,0.0338745,0.00976562
110,2,0.00732422,-0.0167847,-0.0222778,0.0198364,0.00579834,0.0238037,0.0247192,0.0247192,0.0241089,0.0393677,-0.0341797,0.00366211,0.00946045
110,3,-0.0552368,0.0088501,0.0228882,0.00793457,0.00213623,0.0195312,0.0738525,0.0152588,0.0250244,0.0314331,0.0012207,0.0177002,-0.0177002
110,4,-0.0088501,0.0811768,0.0222778,0.0253296,0.0360107,-0.0106812,0.0238037,0.0311279,0.0177002,0.0271606,-0.0344849,0.0311279,0.03479
111,0,-0.0137329,0.0128174,0.0317383,0.0201416,0.0424194,0.03479,0.0128174,0.0201416,0.0234985,0.0445557,-0.0296021,0.027771,0.0201416
111,1,0.0228882,0.0100708,0.00488281,0.0210571,0.0112915,0.0201416,0.00579834,0.0265503,0.0231934,0.0402832,-0.0445557,0.0448608,0.0164795
111,2,0.0332642,0.119019,0.0296021,0.0314331,0.0552368,0.0289917,0.0189209,0.0219727,0.0134277,0.0323486,-0.0350952,0.0320435,0.0500488
111,3,0.0177002,0.0576782,0.0204468,0.015564,0.0332642,0.0231934,0.0271606,0.0375366,0.00305176,0.0256348,-0.039978,0.0216675,0.0289917
111,4,0.0326538,0.0457764,0.0326538,-0.00244141,0.0210571,0.00488281,0.0299072,0.0128174,0.0198364,0.0402832,-0.0384521,0.0299072,0.0378418
112,0,-0.0292969,0.0354004,0.0350952,0.0308228,0.00915527,0.012207,0.0195312,0.0186157,0.012207,0.0354004,-0.0384521,0.0189209,0.03479
112,1,0.0424194,0.0106812,-0.00640869,0.0180054,0.0250244,-0.0158691,0.0195312,0.0204468,0.0970459,0.0286865,-0.0271606,-0.0222778,0.0332642
112,2,0.0628662,-0.00183105,0.0369263,0.0186157,0.0350952,0.0161743,0.0234985,0.0247192,0.0314331,0.0350952,0.00793457,0.0363159,0.0341797
112,3,0.0421143,-0.0717163,0.0286865,0.0170898,0.0534058,0.00549316,0.0247192,0.0158691,0.0283813,0.0390625,-0.0363159,0.0170898,0.032959
112,4,0.0332642,-0.0570679,0.0170898,0.010376,0.0180054,0.00793457,0.00946045,0.0161743,0.0244141,0.0442505,-0.0332642,0.0482178,0.0216675
113,0,0.0213623,-0.0753784,-0.00335693,0.0244141,0.00915527,0.0186157,0.0210571,0.0143433,0.0161743,0.0274658,-0.0192261,0.0338745,0.0396729
113,1,0.0378418,-0.0341797,0.0387573,0.032959,0.015564,0.0140381,0.0241089,0.0195312,0.0268555,0.0344849,-0.0360107,0.0244141,0.0332642
113,2,0.0378418,0.0445557,0.0326538,0.0204468,0.0210571,0.0296021,0.0186157,0.0238037,0.0485229,-0.0198364,-0.0268555,0.0448608,0.0692749
113,3,0.0170898,0.10376,0.0482178,-0.0271606,0.0216675,0.00335693,0.0213623,0.0360107,0.0289917,0.0250244,-0.0393677,0.0222778,0.0292969
113,4,0.0543213,0.00732422,0.0195312,0.0299072,0.0158691,-0.0106812,0.0128174,0.0247192,0.0393677,0.0369263,-0.0210571,0.0344849,0.0372314
114,0,0.050354,-0.0549316,0.0491333,0.0228882,0.0106812,0.0189209,0.0296021,0.0231934,0.00305176,0.0241089,-0.0302124,0.0317383,0.032959
114,1,0.0485229,-0.0228882,0.0268555,0.0256348,0.00305176,0.0344849,0.0134277,0.0140381,0.0363159,0.0247192,-0.0265503,0.0268555,0.0363159
114,2,0.03479,-0.122986,0.0360107,0.0335693,-0.0335693,0.0344849,0.0219727,0.0186157,0.0201416,0.0299072,-0.0335693,0.015564,0.0289917
114,3,0.0238037,-0.0750732,0.00427246,0.0262451,0.0149536,0.0250244,0.0170898,0.0201416,0.0088501,0.0283813,-0.0311279,0.0515747,0.039978
114,4,0.0350952,0.0604248,-0.0100708,0.0253296,-0.00396729,-0.0341797,0.0140381,-0.00610352,-0.0360107,0.027771,-0.0131226,0.00518799,0.0283813
115,0,0.0302124,0.145569,0.0112915,0.0299072,0.0201416,0.0128174,0.0265503,0.0268555,0.0161743,0.0421143,0.00762939,0.0201416,0.0183105
115,1,0.0537109,0.171204,0.0183105,0.0228882,0.027771,0.0320435,0.0283813,0.00335693,0.0515747,0.0402832,-0.0286865,0.0387573,0.0280762
115,2,0.0308228,0.158997,0.0372314,0.0253296,0.0790405,0.0195312,0.0119019,-0.0213623,0.00823975,0.0369263,-0.0460815,0.0195312,0.0195312
115,3,0.0256348,0.117188,0.0302124,0.0231934,0.0247192,0.0115967,0.0308228,0.0299072,0.0292969,0.0219727,-0.0341797,0.0268555,0.0283813
115,4,0.00640869,0.0909424,0.0317383,0.0796509,0.0186157,0.00366211,0.071106,0.0140381,0.0271606,0.0543213,-0.0296021,0.045166,0.0308228
116,0,0.0152588,0.110474,0.0521851,0.0338745,0.0283813,0.017395,0.0088501,0.0201416,0.010376,-0.032959,-0.0372314,0.0305176,0.0244141
116,1,0.0146484,0.0863647,0.0271606,-0.0088501,0.0265503,0.0170898,0.0259399,0.0119019,0.0262451,0.0186157,-0.0286865,0.0259399,0.0387573
116,2,0.0247192,0.112305,0.0442505,0.0231934,-0.050354,0.0195312,0.0180054,0,0.0265503,0.0305176,-0.0314331,0.0268555,0.0314331
116,3,0.0320435,0.132751,0.0460815,0.0384521,0.0100708,0.0137329,0.0357056,0.0125122,0.0396729,0.0778198,-0.0180054,0.0372314,0.0106812
116,4,0.0286865,0.0964355,0.0421143,0.0286865,0.0115967,0.0177002,0.0262451,0.0726318,0.0253296,0.0125122,-0.055542,0.0323486,0.0317383
117,0,0.0283813,0.0671387,0.0143433,0.0250244,0.0109863,0.0238037,0.00579834,0.0146484,-0.0137329,0.0372314,-0.0326538,0.0579834,0.0238037
117,1,0.0341797,0.0524902,0.0170898,0.0280762,0.00640869,0.0238037,0.0180054,0.0161743,-0.00793457,0.0234985,-0.0167847,0.0314331,0.0421143
117,2,0.0537109,0.0790405,0.0216675,-0.0326538,0.0152588,0.0192261,0.0735474,0.00915527,0.0256348,-0.0198364,-0.0320435,0.0424194,0.0280762
117,3,0.020752,0.0238037,-0.039978,0.0341797,0.0119019,0.0402832,0.000915527,0.0186157,0.0311279,0.0265503,-0.0320435,0.0259399,0.0387573
117,4,0.0112915,-0.0180054,0.0180054,0.0393677,0.0119019,0.0186157,0.0234985,0.0372314,0.0271606,0.0170898,-0.0408936,0.0189209,0.0408936
118,0,0.0415039,-0.00823975,0.020752,0.0161743,0.0167847,0.0274658,-0.00335693,0.0283813,0.0311279,0.0305176,-0.0305176,0.00793457,0.0479126
118,1,0.022583,-0.00671387,0.0271606,0.0219727,0.0167847,0.0167847,0.0219727,0.0115967,0.0219727,0.0143433,-0.0216675,0.0201416,0.0363159
118,2,0.0213623,-0.0183105,0.00946045,0.0204468,0.0857544,0.0256348,0.0186157,-0.0216675,0.0280762,0.00823975,-0.0332642,0.0131226,0.0311279
118,3,0.015564,-0.0296021,0.0216675,0.0302124,-0.0186157,0.0146484,0.0308228,-0.0268555,0.0262451,0.0204468,-0.0579834,0.0244141,0.0524902
118,4,0.0195312,-0.00396729,0.0299072,0.022583,0.0384521,0.0143433,0.0164795,0.0387573,0.00640869,0.027771,-0.0274658,0.0146484,0.0262451
119,0,0.0228882,-0.0198364,0.0164795,0.0314331,0.0158691,0.010376,0.0274658,0.0338745,0.0247192,0.0192261,-0.039978,0.0372314,0.03479
119,1,0.0198364,0.00213623,0.0299072,0.100708,0.0228882,0.00823975,0.0378418,0.00457764,0.0189209,0.00793457,-0.027771,0.0375366,0.0238037
119,2,0.0271606,0.0128174,0.0454712,0.0241089,0.0152588,0.0332642,0.0302124,0.0177002,0.065918,0.0344849,-0.0274658,0.0320435,0.0308228
119,3,0.022583,0.020752,0.0558472,0.0286865,0.0247192,0.015564,0.0177002,0.0109863,0.0372314,0.0274658,0.020752,0.0335693,0.00976562
119,4,0.0326538,0.0335693,0.03479,0.00396729,0.0210571,0.0219727,0.00671387,0.0128174,0.0317383,0.015564,-0.0384521,0.0375366,-0.0128174
120,0,0.055542,0.0424194,0.0186157,0.0289917,0.0152588,0.0222778,0.0286865,0.0222778,0.0314331,0.0415039,-0.032959,0.0143433,0.0259399
120,1,0.0253296,0.0546265,0.0183105,0.0384521,0.0189209,0.0115967,0.0338745,-0.00244141,0.0167847,0.0268555,-0.0302124,0.0213623,-0.0460815
120,2,0.0338745,-0.0241089,0.0396729,0.0265503,0.0177002,0.0308228,0.0363159,0.0311279,-0.00549316,0.0402832,-0.0274658,0.0195312,0.0726318
120,3,0.0317383,-0.0686646,0.0335693,0.0231934,0.0280762,0.0149536,0.0161743,0.0335693,-0.0161743,0.00579834,-0.0296021,0.0354004,0.0213623
120,4,0.0189209,-0.0527954,0.00823975,0.0323486,0.0317383,0.0506592,0.0143433,0.00274658,0.0125122,0.0241089,-0.0244141,0.0311279,0.0396729
121,0,0.0320435,-0.0253296,0.0268555,0.0283813,0.0308228,0.0115967,0.0204468,0.0219727,0.017395,0.00732422,-0.0326538,0.0189209,0.0192261
121,1,0.027771,-0.0491333,0.0320435,0.0357056,0.0238037,0.0158691,0.0158691,0.0119019,0,0.0213623,-0.0302124,0.0357056,0.0396729
121,2,0.0180054,0.00488281,0.0140381,0.00701904,0.00915527,0.00915527,0.0164795,0.00518799,0.00549316,0.0305176,-0.0210571,0.0131226,0.0292969
121,3,0.00701904,-0.0256348,0.0521851,0.0183105,0.0308228,0.0265503,0.0238037,0.0192261,0.0115967,0.0274658,-0.0289917,0.0213623,0.038147
121,4,0.0106812,0.0302124,0.0180054,0.0292969,0.0326538,0.00427246,0.0213623,0.0201416,0.0311279,0.012207,-0.0112915,0.0494385,0.0228882
122,0,0.0296021,0.0646973,-0.000610352,0.0250244,0.0238037,0.0213623,0.0308228,0.00335693,-0.000305176,-0.0106812,-0.0296021,0.0454712,0.0384521
122,1,0.0418091,0.0741577,0.0170898,0.0183105,-0.000305176,0.0311279,0.0259399,0.0442505,0.0323486,0.0195312,-0.0265503,0.0402832,0.0476074
122,2,0.0604248,0.045166,0.00671387,0.0460815,0.0250244,0.0177002,0.0219727,0.0289917,0.020752,0.0106812,-0.0158691,0.0289917,0.0497437
122,3,0.0765991,-0.0137329,0.00793457,0.0314331,0.0256348,0.0140381,0.0247192,0.020752,0.0253296,0.010376,-0.0280762,0.0192261,0.0274658
122,4,0.0350952,0.0183105,0.0256348,0.0213623,0.0317383,0.0350952,0.0106812,-0.0106812,0.00823975,0.0146484,-0.0231934,0.0341797,0.0219727
123,0,0.00854492,0.110474,0.0268555,0.0341797,0.0506592,0.017395,0.0115967,0.0201416,0.022583,0.0128174,-0.0598145,0.0247192,0.0421143
123,1,-0.0241089,0.153809,0.0180054,0.0350952,0.0314331,0.00854492,0.0219727,0.00732422,0.00671387,0.0167847,-0.0158691,0.0180054,0.0354004
123,2,-0.0317383,0.137939,0.0402832,0.0469971,0.0250244,0.0216675,0.0125122,0.0231934,0.00671387,0.0299072,-0.0247192,0.0119019,0.039978
123,3,0.0341797,0.14679,0.0228882,0.032959,0.0588989,0.0244141,0.0167847,0.012207,0.0189209,0.0283813,-0.00671387,0.0372314,0.0231934
123,4,0.0839233,0.116272,0.0308228,0.00579834,0.0344849,0.0201416,0.0531006,0.0125122,0.00946045,0.0653076,-0.0204468,0.032959,0.0256348
124,0,0.0692749,0.147095,0.0280762,0.0143433,0.0286865,0.0183105,0.00610352,0.0128174,0.0143433,0.0109863,-0.0189209,0.0363159,0.0222778
124,1,0.0653076,0.114746,0.0234985,0.0198364,0.0375366,-0.0231934,0.0210571,0.00854492,-0.0265503,0.0326538,-0.0271606,-0.00244141,0.0308228
124,2,0.055542,0.0460815,-0.0140381,0.0466919,0.0360107,-0.00518799,0.00549316,0.0228882,0.0219727,0.0250244,-0.0228882,0.0323486,0.0253296
124,3,0.0323486,-0.0177002,-0.010376,0.0180054,0.0311279,0.0695801,0.0204468,0.0146484,0.0140381,0.010376,-0.0234985,0.0128174,0.0292969
124,4,0.022583,-0.0518799,0.0317383,0.0125122,0.0482178,0.0149536,0.0167847,0.032959,0.0210571,0.0247192,-0.0421143,0.0170898,0.0338745
125,0,0.0250244,-0.0601196,0.039978,0.0244141,0.0366211,0.0100708,0.0128174,0.0177002,0.0158691,0.0222778,-0.0192261,0.0198364,0.0497437
125,1,-0.000915527,-0.0195312,0.0421143,0.0421143,0.0286865,0.0112915,0.050354,0.00793457,0.0372314,0.0180054,-0.0238037,0.0250244,0.0402832
125,2,0.000305176,0.0421143,0.0396729,0.0143433,0.0439453,0.0195312,0.0219727,-0.0585938,0.0167847,0.0195312,-0.0619507,0.0250244,0.0292969
125,3,0.0146484,-0.00335693,0.0531006,0.0613403,0.0308228,0.0247192,-0.0106812,0.0161743,0.0195312,-0.0128174,-0.0372314,0.0250244,0.0128174
125,4,0.000610352,0.0485229,0.0411987,0.0244141,0.0180054,0.0341797,0.0161743,0.0189209,0.0213623,0.0305176,-0.0247192,0.0115967,0.0305176
126,0,-0.00915527,0.00518799,0.0363159,0.0469971,0.0369263,0.0265503,0.00976562,0.0164795,0.0143433,0.0177002,-0.0192261,-0.020752,0.0344849
126,1,0.0192261,0.0949097,0.06073,0.0271606,0.0396729,0.00183105,0.0177002,0.0286865,0.017395,0.00762939,-0.0268555,0.0283813,0.050354
126,2,0.0964355,0.0732422,0.0198364,-0.00732422,0.0650024,0.0125122,0.0128174,0.0415039,0.0213623,0.00518799,-0.0616455,0.0274658,0.0247192
126,3,0.00396729,0.0378418,-0.00671387,0.0360107,0.0271606,0.0430298,0.00793457,0.0088501,-0.0280762,0.00610352,-0.010376,0.0769043,0.043335
126,4,0.0460815,0.0183105,0.03479,0.0619507,0.03479,0.0363159,0.0262451,0.00518799,0.00335693,0.0234985,-0.0115967,0.00976562,0.0201416
127,0,0.107117,0.0390625,0.0146484,0.06073,0.0469971,0.0262451,0.0128174,0.000610352,0.0100708,0.00915527,-0.0158691,0.0106812,0.0360107
127,1,0.0534058,0.0183105,0.0326538,0.017395,0.0421143,0.0332642,-0.0396729,0.0158691,-0.0204468,-0.043335,-0.0262451,0.0271606,0.00976562
127,2,0.0234985,0.0106812,0.0280762,0.0131226,0.0363159,0.0216675,0.0189209,0.0201416,0.0012207,0.0280762,-0.03479,0.0387573,0.0567627
127,3,0.0210571,-0.000915527,-0.0140381,0.0271606,0.0241089,0.0125122,0.0149536,0.038147,0.0109863,0.0234985,-0.0262451,0.020752,0.0268555
127,4,0.0384521,-0.0463867,0.0357056,0.0445557,0.0088501,0.0241089,0.0326538,0.0164795,0.0213623,0.0137329,0.00396729,0.0393677,0.0216675
128,0,0.0448608,-0.0268555,0.0369263,0.0106812,0.0289917,0.0271606,0.0265503,0.0140381,0.00854492,0.0125122,-0.0241089,0.020752,0.0299072
128,1,0.0491333,-0.0762939,0.0323486,0.0344849,0.0506592,0.0216675,0.0296021,0.0344849,0.00457764,0.0216675,-0.0262451,0.0204468,0.0314331
128,2,0.0189209,-0.148621,0.00854492,0.0244141,0.0396729,0.0100708,0.00701904,0.015564,0.0143433,0.0012207,-0.0283813,0.017395,0.0256348
128,3,0.0164795,-0.0924683,0.0149536,0.0344849,0.0366211,-0.0140381,0.0247192,0.0201416,-0.0280762,0.0180054,-0.0216675,0.0161743,0.0186157
128,4,0.0222778,-0.0363159,0.0292969,0.0280762,0.0375366,0.0256348,0.0213623,0.0140381,0.010376,0.00640869,-0.0189209,0.0219727,0.0323486
129,0,0.0363159,0.0137329,0.062561,0.0262451,0.0299072,0.0274658,0.0195312,0.0192261,0.022583,0.00946045,-0.0296021,0.00701904,0.0280762
129,1,0.0527954,0.108948,0.0469971,0.0421143,0.109863,0.0479126,0.0262451,-0.0302124,0.0137329,0.0149536,-0.0088501,0.0216675,0.0354004
129,2,0.0466919,0.103455,0.0305176,0.0302124,0.0308228,0.0259399,0.057373,0.0134277,0.0192261,-0.0112915,-0.0183105,0.0323486,0.03479
129,3,0.022583,0.127258,0.0418091,0.0427246,0.0357056,0.0286865,0.0216675,0.0250244,0.00640869,0.00610352,-0.0164795,0.0222778,0.0201416
129,4,0.0289917,0.144348,0.0360107,0.0259399,0.0366211,0.0244141,0.0408936,0.0119019,0.012207,0.0088501,-0.0106812,0.0326538,0.0219727
130,0,0.0088501,0.0976562,0.0198364,0.0289917,0.0338745,0.0262451,0.0320435,0.00152588,0.0274658,0.00976562,-0.0198364,0.0335693,0.0305176
130,1,0.017395,0.00701904,0.0253296,0.0268555,0.0595093,0.000610352,0.0280762,0.0238037,0.010376,0.00701904,-0.0189209,0.039978,0.015564
130,2,0.00671387,0.0341797,0.03479,0.0299072,0.0262451,-0.027771,0.0195312,0.0320435,0.0473022,0.0125122,-0.0320435,0.0109863,0.0222778
130,3,0.0115967,0.0421143,0.0234985,0.0274658,0.0323486,0.0286865,0.0372314,0.020752,0.0323486,0.0448608,-0.0262451,0.00915527,0.0131226
130,4,0.00244141,0.0494385,0.0302124,0.0326538,-0.0247192,0.0186157,0.0195312,-0.00823975,-0.000610352,0.010376,-0.0271606,0.0189209,0.0274658
131,0,-0.0201416,0.0289917,0.0222778,0.0421143,0.0274658,0.0323486,0.0231934,0.00488281,0.0177002,-0.0106812,-0.0106812,0.0228882,0.0332642
131,1,-0.0109863,0.00671387,0.0201416,0.0991821,0.0424194,0.0430298,0.0384521,0.0289917,0.0112915,0.0231934,-0.0152588,0.0201416,0.0350952
131,2,-0.0186157,0.0592041,0.0341797,0.0170898,0.0247192,0.0177002,0.0259399,0.0134277,0.0106812,-0.0012207,-0.015564,0.0128174,0.0164795
131,3,-0.0442505,0.0210571,0.0357056,0.0149536,0.0219727,0.039978,0.0170898,0.0177002,0.0167847,0.0250244,-0.0326538,-0.0204468,0.0314331
131,4,-0.0210571,0.010376,0.0592041,0.0360107,0.0234985,0.0100708,0.0341797,0.0189209,0.0134277,0.0106812,-0.0192261,0.0592041,0.027771
132,0,-0.0177002,0.0366211,0.0323486,0.0390625,-0.00640869,0.0357056,0.0317383,0.0204468,0.00762939,0.0161743,0.0143433,0.0271606,0.0430298
132,1,0.00732422,0.0128174,0.0247192,0.0439453,0.0292969,0.101929,0.0161743,0.0262451,-0.00762939,-0.0012207,-0.0201416,0.0323486,0.0216675
132,2,0.0112915,0.00915527,0.0143433,0.0262451,0.0357056,0.0247192,0.0784302,0.0198364,0.00335693,-0.0286865,-0.0192261,0.0350952,-0.00305176
132,3,0.0592041,0.0100708,0.0262451,0.0180054,0.0280762,0.0296021,0.0234985,0.0576782,0.0158691,0.00396729,-0.0256348,0.0180054,0.0247192
132,4,0.0476074,0.0158691,0.0408936,0.0515747,0.0280762,0.0210571,0.0149536,0.0131226,0.0787354,0.0234985,-0.0256348,0.0128174,0.0262451
133,0,0.0378418,-0.055542,0.0271606,0.0244141,0.0674438,0.000610352,0.0234985,0.017395,0.0506592,0.0164795,-0.0183105,0.0131226,0.0259399
133,1,0.0186157,-0.022583,0.027771,0.0305176,0.0918579,0.0265503,0.00518799,0.0570679,0.0244141,0.0195312,-0.012207,0.0106812,0.0183105
133,2,0.0253296,-0.0268555,0.0457764,0.0137329,0.0375366,0.032959,0.0317383,0.020752,0.0241089,0.000610352,-0.0259399,0.0231934,0.0210571
133,3,0.0195312,-0.0204468,0.0469971,0.0497437,0.0247192,0.0292969,0.00762939,0.0228882,0.0164795,0.072937,-0.0088501,0.0186157,0.0189209
133,4,0.0274658,0.00915527,0.0262451,-0.0286865,0.0219727,0.0286865,0.0567627,0.0482178,0.0186157,0.0167847,-0.0088501,0.0186157,0.0326538
134,0,0.0186157,-0.010376,0.0268555,0.03479,0.0146484,0.0384521,0.020752,0.0250244,0.0137329,-0.00488281,-0.0228882,0.0350952,0.0335693
134,1,-0.0231934,-0.0393677,0.0387573,0.0350952,0.0408936,0.0219727,0.0305176,0.0308228,0.00793457,0.0128174,-0.00640869,0.03479,0.0244141
134,2,-0.00274658,-0.0112915,0.0283813,0.0238037,0.0326538,0.038147,0.0219727,0.0543213,0.0213623,0.0195312,0.00274658,0.0161743,0.0186157
134,3,0.00152588,-0.012207,0.0390625,0.0170898,0.0250244,0.0115967,0.0204468,0.0228882,-0.0213623,0.0442505,-0.0253296,0.0430298,0.022583
134,4,0.0125122,-0.039978,0.00183105,0.0241089,0.0479126,0.072937,0.0283813,0.0241089,0.0280762,0.0250244,-0.0125122,-0.0244141,0.0192261
135,0,-0.012207,-0.0332642,0.0247192,0.0283813,0.0418091,0.0387573,0.0283813,0.0164795,0.0164795,0.0259399,-0.00640869,0.0189209,0.0274658
135,1,-0.00183105,0.0219727,0.00335693,0.0256348,0.0344849,0.0384521,0.0387573,0.0241089,0.010376,0.0164795,-0.017395,0.0170898,0.0302124
135,2,-0.0106812,0.0958252,0.0296021,0.0170898,0.032959,0.0430298,0.00305176,0.0177002,0.0350952,0.0137329,-0.0140381,0.00946045,0.0256348
135,3,-0.0213623,0.142212,0.0454712,0.032959,0.0274658,0.0369263,0.0576782,0.0210571,-0.0134277,0.0247192,-0.0396729,-0.0424194,0.0219727
135,4,-0.00762939,0.157166,0.0460815,0.0186157,-0.0189209,0.022583,0.0384521,-0.00976562,0.0253296,0.0369263,-0.0213623,0.017395,0.03479
136,0,-0.022583,0.000305176,0.0189209,0.0222778,0.0299072,0.0445557,0.0323486,0.0247192,0.0274658,0.0204468,-0.0259399,0.00274658,0.0100708
136,1,0.00549316,0.0317383,0.0354004,0.012207,0.00274658,0.0369263,0.0436401,0.0292969,0.0149536,0.0201416,0.0253296,0.0180054,0.00305176
136,2,0.0610352,0.0372314,0.0308228,0.0244141,0.0186157,0.03479,0.0350952,0.00518799,0.0152588,0.0408936,-0.0213623,0.00976562,0.00274658
136,3,0.0772095,0.0250244,-0.0158691,0.015564,0.0231934,-0.0170898,0.0317383,0.0302124,-0.0369263,0.0195312,-0.0234985,-0.00366211,-0.00427246
136,4,0.10437,0.0183105,0.012207,0.0115967,0.0308228,0.0259399,0.0354004,0.0250244,0.0222778,0.0335693,0.000915527,0.0286865,0.00366211
137,0,0.0448608,-0.00976562,0.0213623,0.0222778,0.0274658,0.0323486,0.0262451,0.0183105,0.0415039,0.0201416,-0.0244141,0.0421143,0.00732422
137,1,0.0317383,-0.0195312,0.0247192,0.0247192,0.0262451,0.0167847,0.0292969,0.0302124,-0.00610352,0.0247192,-0.0137329,0.00915527,-0.00366211
137,2,0.022583,0.0100708,0.0192261,0.0363159,0.0128174,0.0375366,0.0149536,0.0292969,0.00366211,0.0262451,0.0088501,0.0119019,0.00335693
137,3,0.0326538,-0.0344849,0.0332642,0.022583,0.0286865,0.0402832,-0.0204468,0.0427246,0.0317383,-0.0393677,-0.017395,0.0183105,-0.0631714
137,4,0.0177002,-0.12207,0.022583,0.0396729,0.0482178,0.0341797,0.0219727,0.0283813,0.0180054,0.0204468,-0.0125122,0.027771,0.0598145
138,0,0.00610352,-0.0979614,0.020752,0.0393677,0.0384521,0.0286865,0.00518799,0.020752,0.0189209,0.0210571,-0.0204468,0.00854492,0.0592041
138,1,0.00640869,-0.118103,0.00762939,0.0231934,0.072937,-0.000305176,0.0213623,-0.0112915,0.00915527,0.0195312,-0.0247192,0.0112915,0.00915527
138,2,0.00915527,-0.0109863,0.0296021,0.0256348,0.0305176,0.0180054,0.0357056,0.0195312,0.022583,0.0378418,-0.0143433,0.0302124,0.0106812
138,3,0.00518799,-0.0335693,0.0463867,0.0601196,0.0354004,0.0253296,0.0372314,0.0146484,0.0234985,0.022583,-0.0149536,0.0320435,0.0146484
138,4,0.0222778,-0.0366211,0.0369263,0.032959,0.0177002,0.00793457,0.0222778,0.038147,0.0186157,0.0305176,-0.022583,0.0350952,0.00793457
139,0,0.0247192,-0.00488281,0.0360107,0.0360107,0.0289917,0.0482178,0.0326538,0.0372314,0.0247192,0.0143433,-0.0283813,0.0228882,0.00976562
139,1,0.0271606,0.0698853,0.0283813,0.0238037,0.0283813,0.0250244,0.0152588,0.0341797,0.0375366,0.0360107,-0.0152588,0.0216675,-0.0320435
139,2,0.020752,0.0738525,0.0595093,0.0161743,0.0241089,0.0201416,0.0274658,0.027771,0.00823975,0.0314331,-0.0161743,0.0158691,0.0152588
139,3,0.0158691,0.0137329,0.020752,0.00640869,0.00915527,0.0305176,0.0390625,0.0274658,0.0289917,0.03479,-0.0109863,0.00671387,0.0244141
139,4,0.00976562,0.0390625,0.0161743,0.0274658,0.0231934,0.0421143,0.0192261,0.0384521,0.0332642,0.0323486,-0.0140381,0.0134277,0.0180054
140,0,0.0106812,0.0314331,0.00701904,0.0131226,0.0238037,0.0558472,0.0387573,0.0292969,0.022583,0.0292969,-0.0402832,0.010376,0.0198364
140,1,0.00701904,0.00976562,0.010376,0.0149536,0.0201416,0.022583,0.0256348,0.0823975,0.0375366,0.0219727,0.017395,0.00671387,0.0149536
140,2,0.0198364,0.043335,-0.00335693,0.020752,0.03479,0.0354004,0.0601196,0.0701904,0.0317383,0.0427246,-0.00976562,0.0112915,0.00976562
140,3,0.0012207,0.0683594,-0.0164795,0.0314331,-0.0469971,0.0421143,0.0308228,-0.0439453,0.000305176,0.0292969,-0.0271606,0.0253296,0.0100708
140,4,-0.00152588,0.0506592,-0.00549316,0.0134277,0.032959,0.0183105,0.0296021,0.0128174,0.0131226,0.0286865,-0.0125122,0.00274658,0.00579834
141,0,0.0088501,0.0476074,0.0100708,0.0161743,0.0238037,0.0372314,0.0112915,0.0332642,0.0100708,-0.039978,-0.0247192,-0.000610352,-0.00549316
141,1,-0.0109863,0.0421143,-0.000305176,0.00915527,0.0265503,0.0134277,0.0204468,0.0357056,0.0466919,0.0253296,-0.0253296,0.0799561,0.012207
141,2,-0.0387573,0.0842285,0.00610352,0.0234985,0.0247192,0.0280762,0.0338745,0.0332642,0.0134277,0.0149536,-0.0210571,0.0140381,0.0112915
141,3,-0.0100708,0.0396729,0.0119019,0.00335693,0.0222778,0.0253296,0.0137329,0.0350952,0.0158691,0.0149536,-0.0296021,0.0201416,0.0244141
141,4,0.0167847,0.00579834,0.0189209,0.0222778,0.0354004,0.0311279,0.0436401,0.0317383,0.0344849,0.0296021,-0.0216675,0.0143433,0.020752
142,0,0.00518799,0.000610352,0.0759888,0.0210571,0.0143433,0.0405884,0.0393677,0.0115967,0.0302124,0.0192261,-0.0146484,0.0167847,0.0271606
142,1,0.0140381,-0.0283813,0.0424194,0.0198364,0.0234985,0.0262451,0.0253296,0.0213623,0.027771,0.0357056,-0.0289917,0.0210571,0.0515747
142,2,0.0195312,-0.0564575,0.0186157,0.0204468,0.0384521,0.0289917,0.0280762,0.0387573,0.0360107,0.0231934,-0.0238037,0.0140381,0.0192261
142,3,0.00762939,-0.0402832,-0.0183105,0.0170898,0.0164795,0.0454712,0.0152588,0.0296021,0.078125,0.0314331,-0.0262451,0.0201416,0.0195312
142,4,-0.0198364,-0.0265503,0.017395,0.071106,0.00396729,0.0292969,0.0299072,0.0228882,0.0286865,0.00396729,-0.0115967,0.0286865,0.0494385
143,0,-0.00305176,0.0515747,0.0320435,0.0180054,-0.0296021,0.0256348,0.0201416,0.0689697,0.0488281,0.0375366,-0.0146484,0.0134277,0.00457764
143,1,0.0314331,0.0604248,0.0442505,0.0283813,0.0473022,0.0210571,0.038147,0.0271606,0.0198364,0.0274658,-0.0302124,0.0302124,0.0320435
143,2,0.00244141,0.00762939,-0.0341797,0.020752,0.0192261,0.0384521,0.027771,0.0466919,0.0308228,-0.00213623,-0.0234985,0.0280762,0.038147
143,3,0.0241089,-0.00579834,0.0183105,0.0213623,0.0222778,0.0234985,0.0241089,0.0363159,-0.00671387,0.0396729,-0.0177002,0.0402832,0.00915527
143,4,0.00640869,-0.020752,0.0271606,-0.0100708,0.0308228,0.00335693,0.0265503,0.0314331,0.0378418,0.0259399,-0.0241089,0.00305176,-0.022583
144,0,0.000610352,0.0704956,0.0335693,0.0201416,0.0341797,0.0259399,0.0396729,0.0457764,0.0262451,0.0274658,-0.0234985,0.0167847,-0.00701904
144,1,0.00213623,0.123901,0.027771,0.0177002,0.0213623,0.012207,0.057373,0.0274658,0.0210571,0.017395,-0.0109863,0.0222778,0.00213623
144,2,-0.0167847,0.057373,0.0219727,0.0177002,0.0289917,0.0146484,0.0357056,0.020752,0.0341797,0.0262451,-0.0152588,0.00946045,0.0143433
144,3,-0.0177002,-0.0234985,0.0271606,0.0280762,0.0314331,0.0305176,0.0354004,0.032959,0.0402832,0.038147,-0.0131226,0.0280762,0.0231934
144,4,0.0491333,-0.0210571,-0.010376,0.0119019,0.0274658,0.0186157,0.0344849,0.0296021,0.0595093,0.0186157,-0.0335693,0.0109863,0.0317383
145,0,0.0531006,-0.0402832,0,0.012207,-0.00610352,0.0366211,0.0393677,0.00396729,0.0421143,0.0195312,-0.0137329,0.010376,0.0161743
145,1,0.0531006,0.00396729,-0.00793457,0.0296021,0.00762939,0.0326538,0.0341797,0.0488281,0.0323486,0.0244141,-0.00823975,0,-0.0152588
145,2,0.0311279,0.0161743,0.0128174,0.0183105,-0.0152588,0.0436401,0.0195312,0.0299072,0.0494385,0.0372314,0.00640869,0.00274658,0.0170898
145,3,0.038147,0.0439453,0.0280762,0.010376,0.0274658,0.0311279,0.0540161,0.027771,0.0146484,-0.0332642,-0.0274658,0.0222778,0.022583
145,4,0.0256348,0.0308228,0.0134277,0.0143433,0.0234985,0.032959,0.0363159,0.0271606,0.0314331,0.0247192,-0.0256348,0.0100708,0.00549316
146,0,0.0402832,0.015564,0.0411987,0.0115967,0.0134277,0.00671387,0.0350952,0.0286865,0.0393677,0.0305176,-0.0228882,-0.00610352,0.0158691
146,1,0.0332642,0.03479,0.00732422,0.00244141,0.0125122,0.0958252,0.0299072,0.00518799,0.0656128,0.0189209,-0.00701904,0.0183105,0.0228882
146,2,0.0259399,0.00457764,0.000610352,0.0164795,0.0302124,0.0125122,0.0369263,0.027771,0.0216675,0.012207,-0.0271606,0.0119019,0.0378418
146,3,0.0265503,-0.0341797,0.0125122,0.0289917,0.0222778,0.0250244,0.0244141,0.032959,-0.00518799,0.0271606,-0.0390625,0.0131226,0.0213623
146,4,0.000610352,-0.0460815,0.0274658,0.0183105,0.0161743,0.03479,0.0253296,0.0250244,0.0479126,0.0402832,-0.0256348,0.0366211,0.0180054
147,0,0.0167847,0.0149536,0.0125122,0.0280762,0.0177002,0.0292969,-0.00671387,0.022583,0.0393677,0.0491333,-0.0268555,0.00549316,0.0457764
147,1,0.0213623,0.03479,0.00640869,0.0115967,0.0143433,0.0274658,0.0183105,-0.0247192,0.0442505,0.0234985,-0.0201416,-0.00732422,0.0357056
147,2,0.0473022,0.0582886,0.00762939,0.0643921,0.00701904,0.0332642,-0.0195312,0.0088501,0.0418091,0.0665283,-0.055542,0.0274658,0.0271606
147,3,0.0314331,0.039978,-0.00946045,0.00305176,0.0183105,0.00427246,0.0393677,0.0244141,0.0357056,0.0274658,-0.0323486,0.0234985,0.0137329
147,4,0.0332642,0.115051,-0.00152588,0.012207,0.0216675,0.0228882,0.0289917,0.020752,0.0152588,0.0289917,-0.0204468,0.0259399,0.0198364
148,0,0.0405884,0.0601196,0.0244141,0.0137329,0.0177002,0.0360107,0.0421143,0.0338745,0.0231934,0.0274658,-0.0274658,0.0210571,0.0280762
148,1,-0.0216675,0.00518799,0.0149536,0.0198364,0.00762939,0.0204468,0.0241089,0.0216675,0.0283813,0.0448608,0.0204468,0.012207,0.0137329
148,2,0.0299072,-0.012207,0.0604248,0.0201416,0.0265503,0.0665283,0.0296021,0.0177002,-0.0216675,0.0424194,-0.027771,0.0665283,0.0213623
148,3,0.027771,-0.00244141,0.00518799,0.0805664,0.0112915,0.0170898,0.0195312,0.0137329,0.0280762,0.0482178,-0.0219727,-0.00396729,0.0112915
148,4,0.0280762,0.0253296,0.0164795,0.000305176,0.032959,0.0292969,0.045166,0.0289917,0.0280762,0.0357056,-0.00549316,0.0158691,0.0204468
149,0,0.015564,0.00640869,0.0164795,0.00640869,0.0149536,0.0143433,0.0311279,0.0238037,0.0253296,0.0717163,-0.0192261,0.0198364,0.00366211
149,1,0.0354004,-0.0177002,0.00946045,-0.00793457,0.0137329,0.0192261,0.0125122,0.0286865,0.0350952,0.0286865,-0.0308228,0.0369263,-0.00213623
149,2,0.0387573,-0.0482178,-0.00610352,0.00274658,0.00701904,-0.0100708,0.0167847,0.0466919,0.0778198,0.0421143,-0.0326538,0.0189209,0.0128174
149,3,0.0369263,-0.0299072,0.0292969,0.010376,-0.0180054,0.0210571,0.0357056,0.0354004,0.0265503,0.032959,-0.0183105,0.00793457,0.0125122
149,4,0.0344849,-0.022583,0.0454712,0.0149536,0.0189209,0.0265503,0.0405884,0.0332642,0.0256348,0.0387573,-0.0292969,0.0088501,0.038147
150,0,0.0198364,-0.0427246,0.0546265,0.00152588,-0.0228882,0.0213623,0.0177002,0.0231934,0.0241089,0.0350952,-0.0378418,0.0268555,0.0100708
150,1,0.0439453,0.0946045,0.0479126,0.0137329,0.0268555,0.0186157,0.0286865,0.0427246,0.0164795,0.0396729,-0.0253296,0.0354004,0.0283813
150,2,0.0396729,0.0778198,0.0088501,0.0152588,0.0238037,0.0418091,0.0259399,0.0244141,-0.0317383,0.0219727,-0.0326538,0.0231934,0.0186157
150,3,0.0335693,0.0674438,0.022583,0.0137329,-0.0112915,0.0195312,0.0344849,0.0268555,0.0372314,0.0253296,-0.0189209,0.0421143,0.0308228
150,4,0.0299072,0.0485229,0.00274658,0.0332642,0.0238037,-0.00762939,0.0161743,0.0326538,0.0271606,0.0186157,-0.0317383,0.0888062,0.0253296
151,0,0.0372314,0.0448608,0.00183105,0.00915527,0.0509644,0.0134277,0.0253296,0.0634766,0.0402832,0.0125122,-0.0222778,0.0158691,0.0192261
151,1,0.0286865,0.0497437,0.00823975,-0.000610352,0.00549316,0.0149536,0.0195312,0.0296021,0.0274658,-0.0250244,-0.020752,0.0192261,0.0213623
151,2,0.0704956,0.0500488,-0.00396729,-0.0119019,0.00946045,0.0143433,0.0274658,0.0250244,0.0137329,0.00732422,-0.0271606,0.0210571,0.0274658
151,3,0.039978,0.0531006,0,0.00610352,0.012207,0.0234985,0.0402832,0.0268555,0.0164795,-0.00152588,-0.0286865,0.032959,0.038147
151,4,0.0314331,0.0195312,0,0.010376,0.00976562,0.0152588,0.0241089,0.00854492,0.0210571,0.00396729,-0.0302124,0.0393677,0.0338745
152,0,0.0241089,-0.00610352,0.00671387,0.0253296,-0.0497437,0.0234985,0.0106812,0.0692749,0.0119019,0.017395,-0.0256348,0.0128174,0.0222778
152,1,0.0256348,-0.0134277,0.0088501,0.00640869,0.0152588,0.0595093,0.0299072,0.0250244,-0.0213623,0.00305176,-0.0332642,0.0262451,0.0378418
152,2,0.0213623,-0.0390625,0.0131226,0.0231934,0.03479,0.0140381,0.0241089,0.0265503,0.0320435,-0.00396729,-0.0341797,0.0167847,-0.0228882
152,3,0.0305176,-0.0180054,0.0302124,0.0177002,0.00946045,0.022583,0.027771,0.0314331,0.0137329,0.0149536,-0.0283813,0.0201416,0.00640869
152,4,0.0192261,-0.0549316,0.0375366,0.022583,0.0106812,0.0125122,0.0234985,0.0167847,0.0158691,-0.0247192,-0.0213623,0.0308228,0.0708008
153,0,0.0335693,-0.00823975,0.0241089,0.0375366,0.0170898,0.0195312,-0.0210571,0.0427246,0.0396729,0.0241089,-0.0335693,0.0234985,0.00793457
153,1,0.0857544,0.0683594,0.0247192,0.00396729,0.0109863,0.0106812,0.0204468,0.0238037,0.0241089,0.0253296,-0.0378418,0.0195312,0.020752
153,2,0.0762939,0.107117,0.0769043,0.0131226,0.0216675,0.085144,0.0387573,0.0170898,0.0195312,0.0100708,-0.038147,-0.0012207,0.0308228
153,3,0.0546265,0.104675,0.0115967,0.022583,-0.00366211,0.0149536,0.0271606,0.0177002,0.00946045,0.0137329,-0.0311279,-0.0204468,0.032959
153,4,0.0222778,0.0741577,0.00457764,0.0338745,0.015564,0.00457764,0.0250244,0.0405884,0.0292969,0.0131226,-0.0488281,0.0509644,0.0271606
154,0,0.0357056,0.0653076,-0.000915527,0.00976562,0.0125122,-0.0128174,0.0256348,0.0241089,0.0695801,0.00549316,-0.0323486,0.0531006,0.0393677
154,1,-0.0088501,0.0598145,0.012207,-0.0259399,0.0305176,0.0109863,0.00946045,0.0250244,0.0244141,0.0756836,-0.0476074,0.03479,-0.0186157
154,2,0.0305176,0.0601196,0.0268555,0.0115967,0.0390625,0.0146484,0.0262451,0.00762939,0.0402832,0.0418091,-0.020752,0.0195312,0.0323486
154,3,0.0332642,-0.0125122,0.0311279,0.0152588,0.0161743,0.0143433,0.0296021,0.0268555,0.0274658,0.0427246,-0.0463867,-0.0311279,0.0335693
154,4,0.0167847,-0.0424194,0.0195312,0.015564,0.00976562,0.00823975,0.0140381,0.0402832,0.0305176,0.0424194,-0.0366211,0.0268555,0.0375366
155,0,0.0195312,-0.0317383,0.0131226,0.00213623,0.0558472,0.017395,0.022583,0.0527954,0.0265503,0.0396729,-0.0299072,0.010376,0.0292969
155,1,0.0143433,0.0170898,0.022583,0.0128174,0.0134277,0.0198364,0.00213623,0.0238037,0.00274658,0.0491333,0.0131226,0.0323486,0.0521851
155,2,0.0201416,-0.00701904,-0.0332642,0.0186157,-0.000610352,0.010376,0.0222778,0.0195312,0.0256348,0.0500488,-0.0186157,0.0228882,-0.0244141
155,3,0.0201416,-0.0152588,0.0228882,0.00946045,0.0228882,0.00396729,0.0601196,0.00976562,0.0216675,0.0469971,-0.0228882,0.0244141,0.0250244
155,4,0.062561,0.0149536,0.0299072,0.0189209,0.0302124,0.0247192,0.0201416,0.0292969,0.0106812,0.0592041,-0.0320435,0.0323486,0.0320435
156,0,-0.0292969,0.00213623,0.0231934,0.0427246,0.0372314,0.00762939,0.0323486,0.0189209,0.0274658,0.0616455,-0.0299072,0.0234985,0.0299072
156,1,0.0234985,0.0183105,0.022583,0.022583,0.00549316,0.00946045,0.0305176,0.0375366,0.0390625,0.0689697,-0.0256348,0.0256348,0.0222778
156,2,0.032959,-0.00305176,0.0195312,0.0219727,0.00762939,-0.00213623,0.0302124,0.0201416,0.0427246,0.0537109,-0.0363159,0.0894165,0.0292969
156,3,0.0482178,-0.0521851,0.0579834,0.0177002,0.0146484,-0.0601196,0.027771,0.0292969,0.0714111,0.0506592,-0.0308228,-0.0354004,0.0201416
156,4,0.0372314,-0.062561,0.0109863,0.0265503,0.0149536,-0.00457764,0.0213623,0.0256348,0.0253296,0.0509644,-0.038147,0.0323486,0.0234985
157,0,0.0375366,-0.0772095,-0.0128174,0.0195312,0.0128174,0.0286865,0.0241089,0.0183105,0.0296021,0.0619507,-0.0299072,0.0357056,0.0140381
157,1,0.0579834,-0.0643921,0.0259399,-0.00427246,0.0335693,0.0158691,-0.0131226,0.0131226,0.0323486,0.0820923,-0.03479,0.0274658,0.0357056
157,2,0.0390625,-0.0134277,0.0469971,0.00823975,0.0109863,-0.00274658,0.00366211,0.0283813,0.0933838,0.0692749,-0.0442505,0.00915527,0.0198364
157,3,0.0292969,-0.00701904,0.0180054,0.0253296,-0.0497437,0.0131226,0.00732422,-0.0244141,0.0292969,0.06073,-0.0305176,0.0442505,0.0299072
157,4,0.0415039,0.118713,0.0289917,-0.00274658,-0.0463867,0.0244141,0.00274658,-0.000610352,0.0387573,0.0827026,-0.0332642,0.0408936,0.0238037
158,0,0.0363159,0.147095,0.0265503,0.00518799,0.0143433,0.0149536,0.015564,0.00274658,0.0527954,0.0628662,-0.0317383,0.0170898,0.0213623
158,1,0.0299072,0.134277,0.0436401,0.0250244,0.0192261,0.0143433,0.0109863,0.0161743,0.0234985,0.0531006,-0.0354004,0.0292969,0.0213623
158,2,0.0442505,0.102539,0.0726318,0.0274658,0.0286865,-0.0012207,0.0320435,0.0228882,-0.0180054,0.050354,-0.0396729,-0.0012207,0.00793457
158,3,-0.00244141,0.0894165,0.0262451,0.0183105,0.0250244,0.0183105,0.0231934,0.0180054,0.0146484,0.0579834,-0.0341797,0.0485229,0.0228882
158,4,0.0183105,0.0543213,0.0320435,0.0186157,0.00518799,0.00915527,0.0192261,0.0137329,0.0219727,0.0479126,-0.0283813,0.0247192,0.017395
159,0,0.0228882,0.039978,0.0262451,0.00488281,-0.00488281,0.00427246,0.0119019,0.0149536,0.0201416,0.0698853,-0.0912476,0.0244141,0.043335
159,1,0.0308228,0.0631714,0.03479,0.0244141,0.0262451,0.0198364,0.0219727,0.0177002,0.0210571,0.0418091,-0.0549316,0.0167847,0.0299072
159,2,0.0106812,0.0674438,0.0280762,0.0497437,0.0204468,0.00732422,0.0198364,0.00427246,0.0354004,0.0357056,-0.0415039,0.0280762,0.0357056
159,3,0.0271606,0.098877,-0.0299072,0.0177002,0.0271606,-0.0250244,0.038147,0.0134277,0.0323486,0.0335693,-0.0369263,0.0210571,0.0360107
159,4,0.0183105,0.0888062,0.0262451,0.0253296,0.0259399,0.015564,0.0204468,0.00274658,0.0231934,0.0469971,-0.0421143,0.0265503,-0.0280762
160,0,0.0247192,0.0888062,0.0427246,0.0228882,-0.0262451,0.0268555,-0.00396729,0.0613403,0.0119019,0.050354,-0.0350952,0.00823975,0.0418091
160,1,-0.00701904,0.0369263,0.0299072,0.00366211,0.0262451,0.0213623,0.0167847,0.0137329,0.0247192,0.0482178,-0.0408936,0.0167847,0.0473022
160,2,0.0454712,0.0231934,0.0332642,0.0210571,0.0265503,0.0259399,0.0137329,0.0488281,0.0231934,0.0320435,-0.0546265,0.0317383,0.0302124
160,3,-0.000915527,0.0927734,0.0357056,0.0366211,-0.0402832,0.0100708,0.00732422,0.0234985,0.0247192,0.0354004,-0.0454712,0.0314331,0.0439453
160,4,-0.00213623,-0.00518799,0.0415039,0.0170898,0.0167847,0.0430298,0.00854492,0.00518799,0.0192261,0.0131226,-0.0228882,0.0305176,0.0372314
161,0,0.00732422,-0.0216675,0.0354004,0.0286865,0.0265503,0.0201416,-0.0292969,-0.00488281,0.0189209,0.0390625,-0.0109863,0.0393677,0.0274658
161,1,0.0204468,-0.0314331,0.0274658,0.0161743,0.0158691,-0.0198364,-0.00610352,0.0170898,0.0283813,-0.0119019,-0.0286865,0.0384521,0.0354004
161,2,0.0402832,-0.0292969,0.0396729,0.0137329,0.0186157,0.0231934,0.0152588,0.0286865,0.0180054,0.0164795,-0.0335693,0.0259399,0.0814819
161,3,0.0442505,-0.0878906,0.0286865,0.0195312,0.0311279,0.0158691,0.0189209,0.0296021,0.0177002,0.00671387,-0.03479,0.0393677,0.0219727
161,4,0.0704956,-0.0320435,0.0128174,0.0296021,0.0375366,0.0106812,0.0143433,0.0231934,0.0201416,0.00732422,-0.0341797,0.0427246,0.00366211
162,0,0.0488281,-0.00946045,0.0244141,0.0134277,0.0231934,0.0311279,0.0234985,0.0390625,0.0231934,-0.00366211,-0.00549316,0.0357056,0.015564
162,1,0.0427246,-0.0857544,0.0299072,0.0158691,0.0149536,0.0112915,0.0100708,0.015564,0.0280762,0.010376,-0.0305176,0.0363159,0.00701904
162,2,0.0204468,-0.0765991,0.0372314,0.0338745,-0.0314331,0.0140381,0.015564,-0.0137329,0.0390625,0.0180054,-0.0283813,0.0479126,0.0213623
162,3,0.0286865,0.00488281,0.043335,0.0289917,0.0344849,0.0128174,0.0106812,0.0198364,0.0125122,0.00305176,-0.0286865,0.0387573,0.0195312
162,4,0.0662231,0.0875854,0.0268555,0.0192261,0.0326538,0.0234985,0.0119019,0.0256348,0.0106812,0.0701904,-0.0228882,0.0344849,0.0119019
163,0,0.088501,0.0653076,0.0378418,0.0250244,0.0747681,0.0222778,0.00213623,0.0146484,-0.00152588,0.0210571,-0.0268555,0.0308228,0.0219727
163,1,0.0976562,0.127258,0.0308228,0.0759888,0.0244141,0.00244141,0.0109863,0.0250244,0.0137329,0.00274658,-0.0259399,0.0332642,0.022583
163,2,0.0619507,0.151672,0.0170898,0.0320435,0.0265503,0.0222778,0.012207,0.0100708,0.0286865,0.00427246,-0.050354,0.0244141,0.0146484
163,3,0.0527954,0.101318,0.0845337,0.0299072,0.0161743,0.0476074,0.0271606,0.0115967,0.0238037,0.00823975,-0.0390625,0.0170898,0.0253296
163,4,0.0308228,0.0994873,0.0219727,0.0222778,0.0271606,-0.0140381,0.0137329,0.0192261,-0.010376,0.0152588,-0.0344849,0.0134277,0.027771
164,0,0.0427246,0.0796509,-0.0500488,0.0283813,0.0280762,0.06073,0.00305176,0.0253296,0.0183105,0.015564,-0.0308228,0.0219727,0.0265503
164,1,0.032959,0.0128174,0.0476074,0.0335693,0.0335693,0.00457764,0.020752,0.010376,0.0192261,0.010376,-0.050354,0.0256348,0.0247192
164,2,0.0204468,-0.0012207,-0.00946045,0.0320435,0.03479,0.00732422,0.0106812,-0.0088501,0.0668335,0.00335693,-0.027771,0.0421143,0.0473022
164,3,0.00793457,-0.0012207,0.0216675,0.0183105,0.0311279,0.0204468,0.0512695,0.00701904,0.00183105,0.00793457,-0.027771,0.0180054,0.0537109
164,4,0.00427246,-0.0189209,0.03479,0.0314331,0.0366211,0.0137329,0.0195312,-0.0354004,-0.017395,-0.000305176,-0.0439453,0.0180054,0.0448608
165,0,0.0280762,-0.0366211,0.0280762,0.0238037,0.0131226,0.0088501,0.00823975,0.0338745,0.00640869,0.00732422,-0.0201416,0.0106812,0.0335693
165,1,0.00823975,-0.020752,0.0643921,0.0296021,0.0256348,-0.0360107,-0.012207,0.012207,0.0442505,0.0192261,-0.0247192,0.0317383,0.0561523
165,2,-0.0012207,-0.0241089,0.0195312,0.0476074,0.0241089,0.0238037,0.0195312,0.0167847,-0.00549316,0.0198364,-0.0296021,0.0509644,0.0390625
165,3,0.000610352,0.0476074,0.06073,0.038147,0.0491333,0.0494385,0.0167847,0.0415039,0.00793457,0.0189209,-0.0262451,0.0271606,0.0436401
165,4,-0.00213623,0.111084,0.0234985,0.0363159,0.0366211,0.0292969,0.0222778,0.0292969,-0.00213623,0.03479,-0.0357056,0.0393677,0.0469971
166,0,0.000610352,0.0918579,0.0201416,0.017395,0.0216675,-0.0115967,0.0308228,0.0140381,-0.00183105,0.0289917,-0.0286865,0.0582886,0.0344849
166,1,0.00640869,0.0790405,0.0180054,0.0662231,0.0140381,0.0137329,0.0234985,0.00488281,0.032959,0.00610352,-0.0192261,0.0274658,0.0268555
166,2,0.00640869,0.106506,0.0146484,0.0549316,0.017395,0.0350952,0.0280762,0.010376,0.0250244,-0.000915527,-0.0274658,0.0354004,0.0317383
166,3,-0.0643921,0.050354,0.020752,0.0299072,0.00946045,0.0265503,0.0149536,0.0268555,0.0137329,0.0115967,-0.062561,0.017395,0.0183105
166,4,0.00732422,0.0360107,0.0219727,0.0177002,0.022583,0.0286865,0.0241089,0.0195312,0.0210571,0.020752,-0.0341797,0.0335693,0.0198364
167,0,0.0189209,0.088501,0.0820923,0.0253296,0.0317383,0.0299072,0.0177002,0.00976562,0.0201416,0.0296021,-0.0408936,0.0198364,0.0152588
167,1,0.00427246,0.130615,0.0357056,0.03479,0.015564,0.0115967,0.0137329,-0.012207,0.0259399,0.0106812,-0.0189209,0.0430298,0.0384521
167,2,0.0311279,0.0274658,0.0454712,0.00488281,0.0375366,0.0164795,0.0280762,0.00671387,0.00366211,-0.0137329,-0.0396729,0.0326538,-0.0494385
167,3,0.088501,-0.012207,0.0134277,0.03479,0.0253296,-0.0137329,0.0201416,0.022583,0.0219727,0.010376,-0.0244141,0.0286865,0.0247192
167,4,0.0567627,-0.0140381,0.0253296,0.0274658,0.0357056,0.0134277,0.0201416,0.0320435,0.0280762,0.0125122,-0.039978,-0.0228882,0.0326538
168,0,0.0448608,0.0146484,0.010376,0.0189209,0.0262451,0.0320435,0.00732422,0.0119019,-0.0210571,0.0259399,-0.0280762,-0.0167847,0.0601196
168,1,0.0350952,0.0384521,0.0167847,0.0231934,0.0189209,0.0271606,0.00457764,0.0231934,-0.00793457,0.015564,-0.0195312,0.0845337,0.0314331
168,2,0.0497437,0.0628662,0.0463867,0.0314331,0.0357056,0.0283813,0.00549316,0.0234985,0.0341797,0.0134277,-0.0119019,0.0384521,0.0323486
168,3,0.0262451,0.0814819,0.0576782,0.0326538,0.0338745,0.0204468,0.0210571,0.00946045,0.0183105,0.0201416,-0.0299072,0.0088501,0.0177002
168,4,0.0274658,0.0769043,0.0317383,0.0262451,0.0112915,0.0387573,0.0228882,0.00152588,0.0219727,0.045166,-0.0280762,0.00305176,0.06073
169,0,-0.0460815,0.0366211,0.0384521,0.03479,0.03479,0.0204468,0.00457764,0.0210571,0.0180054,0.00701904,-0.0213623,0.0296021,0.0421143
169,1,-0.00915527,0.00549316,0.0512695,-0.00793457,0.032959,0.0271606,-0.000915527,0.00976562,0.015564,0.0634766,-0.0247192,0.0332642,-0.0119019
169,2,0.0253296,-0.0439453,0.0265503,0.0195312,0.00762939,0.0280762,0.0195312,0.0198364,0.0234985,0.00793457,-0.0286865,0.0106812,0.0308228
169,3,0.0201416,-0.0338745,0.0308228,0.0253296,0.0848389,0.0311279,0.0198364,-0.00701904,0.0119019,0.00396729,-0.0234985,0.0219727,0.0311279
169,4,0.0491333,0.0354004,0.0354004,0.0442505,0.0305176,0.0170898,0.0238037,0.0238037,0.0521851,0.00274658,-0.00915527,0.0302124,0.0598145
170,0,-0.00274658,0.0332642,0.0149536,0.0790405,0.022583,0.0283813,0.0747681,0.0262451,0.0158691,-0.0265503,-0.0286865,0.022583,0.0320435
170,1,0.0146484,-0.00946045,0.00488281,0.0259399,0.0228882,0.0131226,0.0198364,0.0192261,0.0344849,-0.00274658,-0.0326538,0.00579834,0.0335693
170,2,0.0106812,0.0491333,0.0271606,0.0241089,0.0256348,0.039978,0.0195312,0.012207,0.00762939,0.0790405,-0.027771,0.0262451,-0.0106812
170,3,0.0289917,0.0387573,0.0164795,0.0289917,0.00640869,0.0296021,0.00793457,0.0448608,0.010376,0.0100708,-0.022583,0.03479,0.0299072
170,4,0.0396729,0.0445557,0.03479,0.0515747,0.0268555,0.0152588,0.0366211,0.012207,0.0088501,-0.0375366,-0.0146484,0.0241089,-0.0350952
171,0,0.0305176,0.0769043,0.0286865,0.0265503,0.0317383,0.0137329,0.00427246,0.00946045,0.0402832,0.00946045,-0.0335693,0.0143433,0.0283813
171,1,0.03479,0.0714111,0.0265503,0.0164795,0.0189209,0.0418091,0.039978,0.0177002,0.0161743,0.00823975,-0.0140381,0.0582886,0.0469971
171,2,-0.0106812,0.0967407,0.0323486,0.0274658,0.0354004,0.0183105,0.0427246,0.000610352,0.00274658,0.0280762,-0.0125122,0.0341797,0.0445557
171,3,0.00762939,0.0671387,0.0296021,0.0274658,0.0326538,-0.0247192,0.0344849,0.0119019,0.0161743,0.0189209,-0.022583,0.0396729,0.0402832
171,4,0.0198364,0.071106,0.0323486,0.027771,0.0442505,0.038147,0.0228882,0.0149536,0.00640869,0.0177002,-0.0137329,0.00671387,0.0259399
172,0,0.000610352,-0.027771,0.0332642,0.032959,-0.0308228,0.0274658,0.0222778,-0.0469971,0.00305176,0.0265503,-0.0234985,0.0204468,0.0421143
172,1,0.0161743,-0.012207,0.0308228,0.0222778,0.0238037,0.0204468,0.0219727,0.0119019,0.0012207,0.0128174,-0.0244141,-0.00701904,0.0460815
172,2,0.0476074,-0.0610352,0.0247192,0.0283813,0.0634766,0.0234985,0.032959,0.015564,-0.00366211,0.0167847,-0.0210571,0.0500488,0.0286865
172,3,0.0561523,0.0231934,0.0323486,0.0326538,0.0378418,0.0204468,0.0341797,0.00549316,0.012207,0.0244141,-0.00915527,0.0338745,0.0265503
172,4,0.0357056,0.0183105,0.0335693,0.0421143,0.0344849,0.0372314,0.0341797,0.00366211,0.00701904,0.0201416,-0.0180054,0.0283813,0.0186157
173,0,0.0296021,0.0280762,0.0543213,0.0186157,0.0216675,0.0201416,0.0369263,0.0186157,0.022583,0.0146484,-0.0283813,0.0119019,-0.0234985
173,1,0.0411987,0.0100708,0.0360107,0.0909424,0.0411987,0.020752,-0.038147,0.0320435,0.00946045,0.0177002,-0.0280762,0.0308228,0.0109863
173,2,0.0305176,0.0262451,0.0369263,0.0393677,0.0289917,0.0268555,0.0222778,0.0137329,0.010376,0.00366211,-0.0164795,0.022583,0.0280762
173,3,0.0360107,0.0137329,0.0546265,0.0384521,0.0250244,0.0259399,0.0219727,0.0222778,0.0317383,0.0247192,-0.0180054,0.0180054,0.00488281
173,4,0.0317383,-0.0115967,0.0363159,0.0320435,0.0250244,0.0396729,0.0292969,0.0112915,0.0216675,0.0134277,-0.00915527,0.017395,0.0189209
174,0,0.039978,-0.0335693,0.0360107,0.0286865,0.045166,0.0204468,0.0250244,0.0167847,0.0296021,0.020752,-0.0238037,0.0671387,0.0289917
174,1,0.03479,-0.020752,0.0341797,0.0323486,0.0302124,0.0268555,0.0238037,0.0134277,0.015564,0.0302124,-0.0115967,0.0274658,0.0421143
174,2,0.00610352,-0.0476074,0.0259399,0.0198364,-0.0149536,0.0296021,0.0186157,0.0695801,0.0177002,0.0146484,-0.0137329,0.0219727,0.0296021
174,3,-0.00701904,-0.0167847,0.057373,0.0152588,0.032959,0.0140381,0.0146484,0.0177002,0.0219727,0.0161743,-0.0125122,0.0158691,0.020752
174,4,-0.0112915,-0.0402832,0.0167847,0.0396729,0.0457764,0.0323486,0.0143433,0.0177002,0.0192261,0.0363159,-0.00640869,0.0299072,0.0537109
