Devices
1000
,,Myon - Voltage,,,,,,,,,,,,,
Frame,Sub Frame,GC-M,TA,SOL,VM,VL,RF,BF,ST,GLUT-M,Gracilis,EO,GC-L,Semimembranosus
,,V,V,V,V,V,V,V,V,V,V,V,V,V
1,0,0.0149536,0.0177002,0.0158691,0.0778198,0.0265503,0.0189209,0.00366211,0.0265503,0.0280762,0.020752,-0.022583,0.0289917,0.0189209
1,1,0.0253296,0.015564,0.0320435,0.0158691,0.0714111,0.0424194,0.0405884,-0.0259399,0.0192261,0.0231934,0.00488281,0.0152588,0.015564
1,2,0.0149536,0.00762939,0.0201416,0.0234985,0.0326538,0.043335,0.0222778,0.0167847,0.0247192,0.0140381,-0.0152588,0.022583,0.0314331
1,3,0.0186157,0.0146484,0.0247192,-0.0363159,0.0375366,0.0387573,0.0247192,0.0244141,0.0186157,0.0421143,-0.0189209,0.0228882,0.0424194
1,4,0.0177002,0.0177002,0.0198364,0.0247192,0.0479126,0.0543213,0.0311279,0.0167847,-0.00213623,0.000305176,-0.0189209,-0.0387573,0.0180054
2,0,0.00549316,0.00396729,0.0836182,0.0411987,0.0256348,0.057373,0.0268555,0.0558472,0.015564,0.00213623,-0.0411987,0.022583,0.0299072
2,1,0.00701904,-0.0521851,0.0183105,0.0198364,0.0424194,0.0250244,0.0268555,0.0213623,0.0134277,0.0149536,-0.0170898,0.015564,0.0146484
2,2,0.00915527,0.0149536,0.0152588,0.0268555,0.0534058,0.0262451,0.0271606,0.00640869,0.0143433,0.00244141,-0.022583,0.0219727,0.0274658
2,3,0.0628662,0.0213623,0.0350952,0.0234985,0.0759888,0.0338745,0.0231934,0.0158691,0.0222778,0.00946045,-0.0088501,0.00915527,0.0283813
2,4,-0.00305176,0.0247192,0.0268555,0.0805664,0.0457764,0.032959,0.0491333,0.0198364,0.0210571,-0.00915527,-0.0161743,0.000305176,0.0164795
3,0,0.0161743,0.00946045,0.0259399,0.0323486,0.0506592,0.0198364,0.0323486,-0.0280762,0.017395,-0.017395,-0.00610352,0.0161743,0.0134277
3,1,0.027771,0.0265503,0.00823975,0.032959,0.0457764,0.0311279,0.0241089,0.0213623,0.0128174,-0.00732422,-0.0134277,0.00396729,0.0012207
3,2,0.0131226,-0.00396729,0.0183105,0.0311279,0.0283813,0.0308228,0.0283813,0.0180054,0.00152588,0.000610352,-0.0317383,0.0289917,0.0796509
3,3,0.00427246,0.0115967,0.0152588,0.0128174,0.0396729,0.0112915,0.0241089,0.0344849,0.012207,0.00213623,-0.0320435,0.0146484,0.00976562
3,4,0.0222778,0.0234985,0.0219727,-0.00488281,0.0357056,0.0393677,0.0512695,0.0253296,0.0241089,0.0244141,-0.0231934,0.0177002,0.00854492
4,0,0.0357056,0.0247192,0.0286865,0.0259399,0.0308228,0.0271606,0.0228882,0.0271606,0.00732422,0.027771,-0.0369263,0.015564,0.0109863
4,1,0.0183105,0.0241089,0.0704956,0.0396729,0.0363159,0.112,0.0210571,0.0234985,0.0134277,0.0363159,-0.0234985,0.0161743,0.00823975
4,2,0.0140381,-0.0244141,0.0314331,0.0302124,0.00549316,0.0238037,0.0262451,0.0335693,0.0180054,0.0183105,-0.0180054,0.0680542,0.0189209
4,3,0.0271606,0.0201416,0.0241089,0.0137329,0.0259399,-0.0180054,0.0338745,0.0323486,0.032959,0.0283813,-0.0198364,0.0234985,0.015564
4,4,-0.00488281,0.020752,0.0317383,0.0579834,0.0326538,0.03479,0.0418091,0.0177002,0.0164795,0.0363159,0.0131226,0.0109863,0.00427246
5,0,0.0216675,0.0250244,0.03479,0.020752,0.0198364,0.0405884,0.0271606,0.0323486,-0.0201416,0.0308228,-0.0308228,-0.0134277,0.0204468
5,1,0.0402832,0.0186157,0.0387573,0.0320435,0.0326538,0.0323486,0.0244141,0.0314331,0.0112915,0.00518799,-0.0296021,0.0115967,0.0619507
5,2,0.0326538,0.010376,0.00640869,0.0311279,0.0259399,0.0402832,0.0262451,0.0186157,0.0198364,0.0436401,-0.0119019,0.0125122,0.0271606
5,3,0.0167847,0.0158691,0.0250244,0.0302124,0.012207,0.0326538,0.0357056,0.0311279,0.00976562,0.022583,-0.0244141,0.0115967,0.0167847
5,4,0.0125122,0.0128174,0.0912476,0.0305176,0.0253296,-0.00274658,0.0488281,0.0262451,0.0595093,0.0292969,-0.0161743,-0.0457764,0.0131226
6,0,0.00976562,0.00976562,0.0143433,0.0372314,0.00915527,0.0323486,0.0445557,0.0131226,0.0125122,0.0186157,-0.0088501,0.0219727,0.0177002
6,1,0.0180054,0.0192261,0.0152588,0.0250244,0.0183105,0.0421143,0.0201416,0.0109863,0.0396729,0.0369263,-0.0289917,0.0384521,0.0283813
6,2,0.0228882,0.00335693,0.0308228,0.0128174,0.0350952,0.020752,0.0387573,0.00335693,0.0183105,0.0268555,-0.0286865,0.0234985,0.0222778
6,3,0.0204468,0.0100708,0.0448608,-0.00152588,0.0332642,0.0146484,0.0411987,0.0222778,0.0259399,0.03479,-0.0320435,0.00915527,0.0396729
6,4,0.0201416,0.00946045,0.0247192,0.0527954,0.00366211,0.0308228,0.0186157,0.0204468,0.0192261,0.0497437,-0.00762939,0.0210571,0.0363159
7,0,0.0195312,0.0167847,0.0170898,0.0143433,-0.00671387,0.0363159,0.0320435,0.0186157,0.0317383,0.0167847,-0.0198364,0.0299072,0.0335693
7,1,0.00640869,0.0119019,0.0372314,0.0646973,-0.0238037,0.0262451,0.0283813,0.00701904,0.0149536,0.0195312,-0.0396729,0.0231934,0.0250244
7,2,0.0198364,0.0292969,0.0131226,0.0335693,-0.0314331,0.0344849,0.0231934,0.0247192,0.0149536,0.0369263,-0.015564,0.00427246,0.0231934
7,3,0.000915527,0.0100708,0.0335693,0.0296021,-0.00976562,0.0906372,0.0482178,0.0228882,0.071106,0.0338745,-0.0183105,0.0411987,0.0317383
7,4,0.0213623,0.0134277,0.012207,0.0418091,0.0109863,0.0378418,0.0418091,0.020752,0.0213623,0.0402832,-0.0234985,0.0244141,0.0180054
8,0,0.0210571,0.0289917,0.0210571,0.0256348,0.0274658,0.0436401,0.0317383,0.0253296,0.0228882,0.0360107,-0.0265503,0.0109863,0.0183105
8,1,0.0140381,0.0198364,0.0354004,0.0201416,0.0320435,0.0497437,0.0354004,0.0247192,0.0439453,0.06073,-0.0177002,0.0253296,0.0241089
8,2,0.0115967,-0.045166,0.0186157,0.0198364,0.0427246,0.0305176,0.0262451,0.0308228,0.0354004,0.0479126,-0.0213623,0.000610352,0.0183105
8,3,0.0167847,-0.00305176,0.020752,0.0271606,0.104065,0.0323486,0.0250244,0.0170898,0.0259399,0.0512695,-0.0506592,0.0125122,0.0106812
8,4,0.00701904,-0.0268555,0.00701904,0.0460815,0.0836182,0.0311279,0.0271606,0.0378418,0.0491333,0.0534058,-0.012207,0.0125122,0.0210571
9,0,0.00152588,0.015564,0.0112915,0.020752,0.0668335,0.0299072,0.0219727,0.039978,0.0299072,0.0494385,-0.00793457,0.010376,0.0146484
9,1,0.022583,-0.00305176,0.0137329,0.0189209,0.0234985,0.0131226,0.0262451,0.0646973,0.0357056,0.0531006,-0.0219727,0.0323486,0.0140381
9,2,0.038147,0.00152588,-0.00823975,0.0183105,0.0552368,0.0387573,0.0158691,0.0418091,0.0527954,0.0585938,-0.0350952,0.0115967,0.00732422
9,3,0.00762939,0.0158691,0.0256348,0.0323486,0.0524902,0.0180054,-0.0268555,0.0265503,0.0405884,0.0741577,-0.0280762,0.0253296,0.0250244
9,4,0.0253296,0.00518799,0.0231934,0.0167847,0.043335,0.0143433,0.0488281,0.0100708,0.0323486,0.0341797,-0.0463867,0.0387573,-0.0198364
10,0,0.0125122,0.0531006,0.00152588,0.012207,-0.00976562,0.0344849,0.0332642,0.0540161,0.0418091,0.0479126,-0.0189209,0.00671387,0.0112915
10,1,0.0177002,0.0228882,0.00427246,0.0189209,0.0369263,0.0109863,0.022583,0.0253296,0.0405884,0.0140381,-0.0183105,0.0283813,0.0283813
10,2,0.0219727,-0.00427246,0.0140381,0.00366211,0.0262451,0.0274658,0.0427246,0.0244141,0.0460815,0.022583,-0.0201416,0.00793457,0.0100708
10,3,-0.00762939,0.00793457,0.0192261,0.00305176,0.0341797,0.0302124,0.0259399,0.00457764,0.0445557,-0.00183105,-0.0296021,0.0216675,0.0613403
10,4,0.017395,0.0213623,0.0213623,0.0314331,0.0271606,0.0436401,0.0485229,0.0341797,0.0421143,-0.00305176,-0.0265503,0.0149536,0.0213623
11,0,0.0262451,0.0137329,0.0177002,0.0143433,0.0375366,0.0436401,0.0393677,0.0280762,0.0292969,0.0317383,-0.00762939,0.0244141,0.0177002
11,1,0.0131226,0.0134277,0.0186157,0.00152588,0.0222778,0.0299072,0.0271606,0.00701904,0.039978,0.0296021,-0.0201416,0.00305176,-0.0152588
11,2,0.0253296,0.00823975,0.00549316,0.00946045,0.0265503,0.0149536,0.0457764,0.0402832,0.0286865,0.00671387,-0.0216675,0.0106812,0.0231934
11,3,0.0137329,0.0131226,0.017395,0.0137329,0.0250244,0.0195312,0.0369263,0.0418091,0.0180054,0.0201416,-0.0393677,0.0134277,0.0283813
11,4,0.012207,0.0256348,0.000305176,0.00610352,0.012207,0.0338745,0.0375366,0.0109863,0.0439453,0.0280762,-0.0366211,0.0164795,0.0296021
12,0,0.0210571,0.0167847,0.00640869,0.022583,0.0112915,0.0143433,0.0500488,0.0180054,0.0253296,0.045166,-0.0228882,0.0115967,0.0201416
12,1,0.0167847,0.0311279,0.00732422,0.0244141,0.00732422,0.0280762,0.0323486,0.0283813,0.00366211,0.0161743,-0.0265503,-0.0653076,0.0308228
12,2,0.0231934,0.0222778,0.0140381,0.0143433,0.0180054,0.0268555,0.0341797,0.00549316,0.0363159,0.0183105,-0.0280762,0.015564,0.0180054
12,3,0.00976562,0.0186157,0.0259399,0.0158691,0.00793457,0.027771,0.0427246,-0.00274658,0.0247192,0.0320435,-0.0201416,0.0192261,0.0289917
12,4,0.0405884,0.0222778,0.0167847,0.0244141,0.0167847,0.0228882,0.0387573,0.0387573,0.0540161,0.00793457,-0.0213623,0.0146484,0.0283813
13,0,0.010376,0.00610352,0.00640869,0.0244141,0.00976562,0.0292969,0.0390625,0.0332642,0.022583,0.015564,0.00457764,0.0161743,0.0201416
13,1,0.020752,0.00915527,0.022583,0.0231934,0.00793457,0.010376,0.0222778,0.0234985,0.0357056,-0.00793457,-0.0286865,0.0192261,0.0476074
13,2,0.0109863,0.0134277,0.00183105,0.0180054,0.0341797,0.0241089,0.0286865,0.0302124,0.0421143,0.00579834,-0.0442505,0.000610352,0.0317383
13,3,0.0189209,0.0152588,0.0201416,0.0131226,0.0112915,0.0213623,0.0219727,0.027771,0.0820923,0.00701904,-0.00183105,0.0134277,0.0201416
13,4,0.0204468,0.0100708,0.0146484,0.015564,0.0192261,0.0259399,0.0299072,0.0354004,0.038147,0.00305176,-0.0183105,0.0177002,-0.00518799
14,0,0.0259399,0.010376,-0.038147,0.0195312,0.0317383,0.0454712,0.0396729,0.0280762,0.0366211,-0.00305176,-0.0308228,0.0109863,0.00488281
14,1,0.0222778,0.00152588,0.0198364,0.0189209,0.0439453,0.0137329,0.0274658,0.0268555,0.0363159,0.00244141,-0.0335693,0.0360107,0.0158691
14,2,0.0292969,0.00213623,0.017395,0.0692749,0.0201416,0.0241089,-0.0302124,0.0390625,0.022583,0.0253296,-0.0296021,0.0180054,0.0390625
14,3,0.0234985,0.0177002,0.0152588,0.0204468,0.00640869,0.0180054,0.0222778,0.0732422,0.0161743,0.00457764,0.00457764,0.00305176,0.00549316
14,4,0.0271606,0.0247192,0.0387573,0.0238037,-0.00152588,0.0674438,0.0137329,0.0326538,0.0198364,0.017395,-0.00793457,0.00518799,-0.00640869
15,0,0.0216675,0.00518799,0.00976562,0.012207,0.00152588,0.0256348,0.0289917,0.0579834,0.0256348,0.0115967,-0.0140381,0.0161743,0.0125122
15,1,0.0253296,0.0308228,0.022583,0.0216675,-0.000915527,0.0372314,0.022583,0.0335693,0.0744629,0.0170898,-0.012207,-0.0485229,0.00183105
15,2,0.0204468,0.0189209,0.0250244,0.0219727,-0.0115967,0.0479126,0.0247192,0.0253296,0.022583,0.00549316,-0.000305176,0.00549316,0.00854492
15,3,0.0326538,0.0244141,0.00701904,0.0286865,0.000915527,0.0357056,0.0146484,0.0439453,-0.0195312,0.00244141,-0.017395,-0.0518799,0.022583
15,4,0.0216675,-0.00823975,0.00579834,0.0119019,0.00579834,-0.00610352,0.0280762,0.0439453,0.0100708,0.000915527,-0.0198364,-0.00488281,0.0213623
16,0,0.0363159,0.0222778,0.0146484,0.0119019,-0.0119019,0.0195312,0.00488281,0.0308228,0.022583,0.0134277,0.0198364,0.0137329,0.0238037
16,1,0.0259399,0.0201416,0.00946045,0.0213623,-0.000305176,0.0454712,0.0427246,0.0305176,0.0369263,0.0222778,-0.0234985,0.0146484,0.0262451
16,2,0.022583,0.0875854,0.0198364,0.0189209,0.0375366,0.0115967,0.0244141,0.0271606,0.0296021,0.0192261,-0.0109863,0.0292969,0.0158691
16,3,0.043335,0.0198364,0.032959,0.0476074,0.0128174,0.0259399,0.0311279,0.0250244,0.017395,0.0241089,-0.00640869,0.0332642,0.0189209
16,4,0.0289917,0.0140381,0.0405884,-0.0204468,0.0317383,0.0213623,-0.0234985,0.0396729,0.0100708,-0.00762939,-0.0137329,0.00793457,0.0274658
17,0,-0.00427246,0.0241089,0.0152588,0.000610352,0.043335,0.0219727,0.022583,0.022583,0.0268555,0.0274658,-0.0253296,0.00549316,0.00915527
17,1,-0.0366211,0.0143433,0.00396729,0.0866699,0.0366211,0.027771,0.0515747,0.0286865,0.0320435,0.00488281,-0.0167847,0.0247192,0.0204468
17,2,0.0161743,0.0305176,0.0109863,0.0177002,0.0363159,-0.000610352,0.0238037,0.0390625,0.027771,0.022583,-0.0354004,0.0231934,0.00946045
17,3,0.0192261,0.0140381,0.027771,0.0115967,0.0515747,0.0363159,0.012207,0.0466919,0.0137329,0.0335693,-0.0335693,0.0476074,-0.020752
17,4,0.0265503,-0.0384521,0.0253296,0.0152588,0.0152588,0.0259399,0.0384521,0.0485229,0.0161743,0.0119019,-0.0396729,0.039978,0.0186157
18,0,0.0369263,0.0231934,0.00183105,0.012207,0.0292969,0.020752,0.0271606,0.0289917,0.0405884,0.0280762,-0.0222778,0.0180054,0.0177002
18,1,0.0253296,0.055542,0.0109863,0.0250244,-0.0302124,0.0201416,0.0201416,0.0772095,0.032959,0.0250244,-0.0363159,0.0195312,0.0222778
18,2,0.0259399,0.0250244,0.0134277,0.00183105,-0.00335693,0.020752,0.0488281,0.0460815,0.0289917,0.00305176,-0.0283813,0.0186157,0.0253296
18,3,0.0299072,0.0241089,0.027771,0.00946045,0.0128174,0.038147,0.0317383,0.0271606,-0.0292969,0.027771,-0.0250244,0.0292969,0.0137329
18,4,-0.0280762,0.0158691,0.00549316,0.0195312,0.0326538,0.00366211,0.0271606,0.00946045,0.0360107,0.0296021,-0.0286865,0.0280762,0.0253296
19,0,0.0286865,0.0604248,0.00671387,0.0210571,0.00946045,0.00671387,0.0177002,0.0317383,0.0375366,0.00274658,-0.0241089,0.0210571,0.0408936
19,1,0.0177002,0.0350952,0.012207,-0.0286865,0.00793457,0.00274658,0.0845337,0.0387573,0.0592041,-0.0012207,-0.0238037,0.0250244,-0.012207
19,2,0.0515747,0.0570679,0.0119019,0.015564,-0.0109863,0.0265503,0.0354004,0.0363159,0.0393677,0.0286865,-0.0448608,0.00549316,0.0473022
19,3,0.0265503,0.0238037,0.0131226,0.00640869,0.0164795,-0.0012207,0.0344849,0.0204468,0.0454712,0.0585938,-0.0436401,0.0531006,0.050354
19,4,0.0250244,0.0814819,0.0128174,0.0137329,0.0720215,0.0183105,0.0210571,0.0100708,0.0216675,0.0500488,-0.0302124,-0.00305176,0.0320435
20,0,0.0149536,0.0463867,0.00946045,0.0198364,0.0259399,0.0177002,0.0164795,0.0430298,0.032959,0.0402832,-0.0408936,0.0247192,0.0320435
20,1,-0.00579834,0.0344849,0.0326538,0.06073,0.00396729,0.00946045,0.0720215,0.0344849,0.0323486,0.0299072,-0.043335,0.00305176,0.0170898
20,2,0.0396729,0.0323486,-0.0106812,0.0161743,0.0259399,0.00762939,0.0286865,0.032959,0.0180054,0.0378418,-0.0271606,0.0396729,0.0738525
20,3,0.0408936,0.0326538,0.0158691,0.015564,0.0286865,0.00488281,0.0393677,0.017395,0.0296021,0.0411987,-0.0460815,0.0149536,0.0265503
20,4,0.0268555,0.0320435,0.0109863,0.0198364,0.0213623,0.0219727,0.0167847,0.0158691,0.0454712,0.0296021,-0.0396729,0.0149536,0.0476074
21,0,0.0253296,0.0256348,0.0494385,0.0149536,0.0369263,0.0289917,0.020752,0.0253296,0.027771,0.0411987,-0.0317383,0.0238037,0.0125122
21,1,0.0405884,0.00701904,0.0164795,0.0183105,0.015564,0.0204468,0.00640869,0.0308228,0.0216675,0.0308228,-0.0180054,0.0234985,0.0360107
21,2,0.0189209,0.00793457,-0.000915527,0.0119019,0.0183105,0.0238037,0.0177002,0.0201416,0.0289917,-0.00549316,-0.0292969,0.0247192,0.0634766
21,3,0.0350952,0.0299072,0.0088501,0.0152588,0.0384521,0.0183105,0.0369263,0.010376,0.0234985,0.0387573,-0.0192261,0.0204468,0.0204468
21,4,0.00427246,0.0213623,0.0109863,-0.00579834,0.0262451,0.0799561,0.012207,0.0262451,-0.0106812,0.0387573,-0.0305176,-0.0198364,0.0161743
22,0,0.0259399,0.0262451,0.0427246,0.0131226,0.0109863,0.0115967,0.0204468,0.0692749,0.00823975,0.0296021,-0.0234985,0.0341797,0.00579834
22,1,0.038147,0.0393677,0.0253296,0.0198364,-0.00671387,0.0283813,0.0201416,0.0189209,0.0247192,0.020752,-0.0189209,0.00701904,0.0109863
22,2,0.0366211,0.0323486,0.0296021,0.0134277,-0.00610352,0.0271606,0.020752,0.0265503,0.0247192,0.0271606,-0.0683594,0.0158691,0.0134277
22,3,0.0311279,0.0274658,0.0100708,0.00488281,-0.0161743,0.0286865,0.00793457,0.0115967,-0.0283813,0.0244141,-0.0271606,0.0430298,0.0149536
22,4,0.0296021,0.0390625,0.0775146,0.0241089,-0.0387573,-0.0326538,0.0402832,0.0183105,0.0219727,0.0405884,-0.0140381,0.0335693,0.00823975
23,0,0.0167847,0.0204468,0.012207,-0.0183105,0.0012207,0.0164795,-0.00640869,0.0256348,0.0262451,0.0482178,-0.015564,0.0204468,0.0109863
23,1,0.0228882,0.0152588,0.0167847,0.0195312,0.00366211,-0.000305176,0.0198364,0.0454712,0.0323486,0.0231934,-0.0302124,0.045166,0.00366211
23,2,0.0360107,0.0186157,0.00915527,0.0180054,-0.000915527,0.0619507,0.0134277,0.0106812,0.0213623,0.0289917,-0.0317383,-0.0115967,0.0296021
23,3,0.0354004,0.039978,0.0219727,0.00396729,0.0253296,0.0268555,0.00640869,0.0274658,0.0332642,0.0421143,-0.0787354,0.0308228,0.00823975
23,4,0.0271606,0.00701904,0.0332642,0.0393677,0.00366211,0.0137329,0.015564,0.0299072,0.0262451,0.0354004,-0.027771,0.0274658,0.00366211
24,0,0.0430298,0.0158691,0.0302124,0.0195312,0.0564575,0.0271606,0.0131226,0.0372314,0.0253296,0.0445557,-0.0802612,0.0369263,0.00793457
24,1,0.0341797,0.0332642,0.0164795,0.0335693,0.0189209,0.0216675,0.0268555,0.0338745,0.0286865,0.0320435,-0.039978,0.0320435,0.00671387
24,2,0.0244141,0.0244141,0.0268555,0.032959,0.0387573,0.0405884,0.0164795,0.0241089,0.010376,0.0430298,-0.0326538,0.0390625,0.101318
24,3,0.0302124,0.0283813,0.0250244,0.0219727,0.0650024,0.0238037,0.0231934,0.039978,0.0198364,0.0372314,-0.0396729,0.0402832,0.0210571
24,4,0.0259399,0.0442505,0.0326538,0.0299072,0.0439453,0.0152588,0.038147,0.0244141,0.0247192,0.0656128,-0.0234985,0.0396729,0.0549316
25,0,0.0357056,0.0268555,0.00427246,0.00915527,0.0537109,-0.0164795,0.0241089,0.0271606,0.0390625,0.0402832,-0.0341797,0.0326538,0.0256348
25,1,0.0320435,0.038147,0.0222778,0.0244141,0.0567627,0.00732422,0.00823975,0.00518799,0.0912476,0.0518799,-0.038147,0.0747681,0.0234985
25,2,0.0372314,0.0308228,0.0302124,0.0244141,0.0466919,0.00427246,0.0213623,0.0149536,0.0222778,0.0482178,-0.0274658,0.0402832,0.0286865
25,3,0.0189209,0.0247192,-0.0576782,0.0234985,0.0509644,-0.0491333,0.0308228,0.0216675,0.0408936,0.0088501,-0.0247192,0.0396729,0.045166
25,4,0.0247192,0.0396729,-0.0292969,0.0247192,0.0592041,-0.0366211,0.0256348,0.0177002,0.0552368,0.0335693,-0.0549316,0.0927734,0.0408936
26,0,0.0317383,-0.00579834,0.0299072,0.0311279,0.0524902,0.0119019,0.00762939,0.0119019,0.0485229,0.00610352,-0.0299072,0.0390625,0.0289917
26,1,0.055542,0.0357056,0.0213623,0.0106812,0.0317383,0.0189209,0.0180054,0.0326538,0.0305176,0.0317383,-0.045166,0.0125122,0.0390625
26,2,0.0323486,-0.00549316,0.0244141,0.0262451,0.06073,0.00823975,0.0234985,0.0274658,0.0357056,0.0341797,-0.045166,0.0402832,0.0375366
26,3,0.0265503,0.0286865,0.0289917,0.0204468,0.0305176,-0.00152588,0.0402832,0.00488281,0.0161743,0.0164795,-0.022583,0.0213623,0.0430298
26,4,0.0305176,0.0784302,0.022583,0.0115967,-0.0454712,-0.000610352,0.0234985,0.0195312,0.0256348,0.0375366,-0.0360107,0.00915527,0.0384521
27,0,0.0378418,0.0292969,0.027771,0.0344849,-0.0125122,0.0216675,0.000915527,-0.00701904,-0.020752,0.0183105,-0.0167847,0.0112915,0.0485229
27,1,0.0299072,0.0283813,0.0222778,-0.00427246,0.00610352,0.00518799,0.032959,0.00915527,0.0195312,0.0665283,-0.0238037,0.022583,0.00640869
27,2,0.0280762,0.032959,0.0256348,0.00152588,0.00701904,0.0210571,0.0088501,0.032959,0.00640869,-0.0134277,-0.0402832,0.0256348,0.0720215
27,3,0.0360107,0.0320435,0.0305176,0.0140381,0.0143433,0.00640869,0.0238037,0.00488281,0.032959,0.0274658,-0.0375366,0.0286865,0.027771
27,4,0.0335693,0.0430298,0.0357056,0.0216675,0.000305176,0.0134277,0.0564575,0.015564,0.0228882,0.0344849,-0.0283813,0.0378418,0.0469971
28,0,0.0296021,0.0384521,0.0488281,0.0195312,-0.0482178,0.0152588,0.0296021,0.00610352,0.0088501,0.0204468,-0.0448608,0.0518799,0.0488281
28,1,0.0320435,0.0335693,0.0256348,0.0357056,-0.00152588,0.000915527,0.038147,0.00732422,0.0280762,0.0784302,-0.0405884,0.0186157,0.0839233
28,2,0.020752,0.0363159,0.043335,0.0140381,0.0112915,0.0494385,0.0436401,0.0180054,-0.027771,0.0497437,-0.0247192,-0.0241089,0.0326538
28,3,0.0192261,0.0396729,0.0775146,0.03479,0.00152588,-0.0186157,0.0125122,0.012207,0.0485229,0.00671387,-0.0415039,0.0421143,0.0192261
28,4,0.0201416,0.0231934,0.0292969,0.0311279,-0.0012207,-0.010376,0.00274658,0.0344849,-0.0109863,0.0241089,-0.0421143,0.0384521,0.03479
29,0,0.0180054,0.0296021,0.0396729,0.0320435,0.0234985,0.0164795,0.0177002,0.0192261,0.0244141,0.00366211,-0.0421143,0.0262451,0.0317383
29,1,-0.00579834,0.0238037,0.0421143,-0.00579834,0.0146484,0.0302124,-0.0170898,0.0222778,0.0360107,0.0289917,-0.0210571,0.0189209,0.0335693
29,2,0.0479126,-0.00732422,0.0210571,0.0259399,0.0292969,0.0271606,0.0164795,0.0363159,0.0302124,0.022583,-0.043335,0.0195312,0.0296021
29,3,0.0411987,0.0259399,0.0320435,0.0231934,0.0149536,0.017395,0.0131226,0.0286865,0.0186157,0.00213623,-0.0286865,0.0326538,-0.0109863
29,4,0.0253296,0.0491333,0.022583,0.0183105,0.027771,0.0170898,0.0198364,0.027771,0.0186157,0.0317383,-0.0256348,-0.0421143,0.0299072
30,0,0.0268555,0.0219727,0.0183105,0.0222778,-0.017395,0.0238037,0.0177002,-0.00732422,0.0183105,0.0250244,-0.0167847,0.022583,0.0143433
30,1,0.0283813,0.0271606,0.00701904,0.0289917,0.0149536,0.0201416,0.0167847,0.0299072,0.0195312,0.0335693,-0.0231934,0.0372314,0.0317383
30,2,0.090332,0.027771,0.0125122,0.0274658,0.0100708,0.0253296,-0.000305176,0.0219727,0.0112915,0.0338745,-0.010376,0.0180054,0.00976562
30,3,0.03479,0.045166,-0.0143433,0.027771,0.017395,0.0259399,-0.000610352,0.0302124,0.0149536,0.0244141,-0.0531006,0.0326538,0.0146484
30,4,0.0204468,0.0350952,0.0262451,0.039978,0.00396729,-0.00488281,0.00793457,0.0326538,-0.0259399,0.0408936,-0.0177002,0.0408936,0.00549316
31,0,0.0265503,0.022583,-0.0012207,0.0283813,0.0106812,0.0100708,0.00823975,0.0219727,0.0262451,0.032959,-0.022583,0.0534058,0.0299072
31,1,0.0317383,-0.00640869,-0.0119019,0.0469971,0.0299072,0.0396729,0.017395,0.0213623,0.0283813,0.0299072,-0.0332642,-0.000915527,0.0192261
31,2,0.0314331,0.0357056,0.010376,0.0296021,0.0271606,0.0012207,0.00152588,0.0283813,0.0219727,0.0228882,-0.0167847,0.0338745,0.0241089
31,3,0.0286865,0.0460815,0.00854492,0.0131226,0.0204468,0.00518799,0.0137329,0.032959,0.0332642,0.0341797,-0.0195312,0.0375366,0.0131226
31,4,0.0280762,0.0289917,0.0012207,0.0335693,0.00274658,0.0320435,0.0088501,0.0390625,0.0271606,0.0299072,-0.0222778,0.0296021,0.0177002
32,0,0.0421143,0.0268555,0.0250244,0.0250244,0.0189209,-0.00518799,0.0158691,0.0152588,0.0152588,-0.00762939,-0.0405884,0.0350952,0.0219727
32,1,0.0265503,0.0314331,0.0302124,0.0372314,0.0222778,0.0228882,0.0201416,0.0262451,0.0274658,0.0177002,-0.0360107,0.0317383,0.0283813
32,2,0.0299072,0.0323486,-0.0161743,0.0384521,-0.00274658,-0.0149536,-0.00488281,0.0140381,0.0518799,0.0161743,-0.0271606,0.0250244,0.00732422
32,3,0.0201416,0.0637817,0.020752,0.0268555,0.0494385,0.00823975,0.0125122,0.0579834,0.0256348,0.0231934,-0.0289917,0.0375366,0.017395
32,4,0.0241089,0.0396729,0.012207,0.0222778,0.0012207,0.0259399,0.00915527,0.00152588,0.0222778,0.0112915,-0.0183105,0.00366211,0.0262451
33,0,0.0405884,0.00640869,0.0335693,0.0375366,0.03479,0.0167847,0.0115967,0.0161743,0.0289917,0.00152588,-0.0292969,-0.0244141,0.0222778
33,1,0.0366211,0.0299072,0.0320435,0.03479,0.0296021,0.0350952,0.0146484,0.012207,0.0219727,0.017395,-0.0262451,0.0839233,0.0299072
33,2,0.0268555,0.022583,0.00671387,0.0314331,0.0610352,-0.0128174,0.0177002,0.0231934,-0.0411987,0.0106812,-0.0292969,0.0012207,0.0442505
33,3,0.0253296,0.0357056,0.0308228,0.0244141,0.0372314,0.0268555,0.0180054,0.0177002,-0.000305176,0.00244141,-0.0521851,0.0323486,0.0579834
33,4,0.0360107,0.0271606,-0.0125122,0.0241089,0.0482178,-0.000610352,0.0241089,0.0186157,0.0271606,0.00915527,-0.0366211,0.0119019,0.00579834
34,0,0.0241089,-0.0177002,0.0360107,0.0292969,0.0384521,0.0250244,0.0210571,0.00244141,0.0204468,0.0100708,-0.0335693,0.0158691,0.0375366
34,1,-0.0253296,0.0158691,0.0289917,-0.0158691,0.0302124,0.0302124,-0.0323486,0.00946045,0.0170898,-0.00549316,-0.062561,0.0231934,-0.00671387
34,2,0.0387573,0.0198364,0.0305176,0.0695801,0.0201416,0.0375366,0.0738525,0.0119019,0.017395,0.0125122,-0.0320435,0.03479,0.0308228
34,3,0.0238037,0.0198364,0.0256348,0.0344849,-0.0198364,0.0152588,-0.0280762,0.0302124,0.0164795,0.015564,-0.0262451,0.0317383,0.0341797
34,4,0.0408936,0.0274658,0.0418091,0.027771,-0.0137329,0.0180054,-0.0305176,0.00671387,0.00488281,0.0216675,-0.0265503,0.0354004,0.0344849
35,0,0.0390625,0.0524902,0.0415039,0.0283813,0.0454712,0.0170898,0.0213623,0.039978,0.0311279,0.0250244,-0.0308228,0.0396729,0.0271606
35,1,0.020752,0.0363159,0.0332642,0.0201416,0.015564,0.0164795,0.0164795,0.0234985,0.0250244,-0.00671387,-0.0402832,0.032959,0.104675
35,2,0.0308228,0.0393677,0.032959,0.0302124,0.0268555,0.0241089,0.00488281,-0.03479,0.020752,0.0128174,-0.0756836,0.03479,0.027771
35,3,0.0158691,0.0402832,0.0302124,0.0308228,0.0192261,0.0491333,0.0137329,-0.000610352,-0.0262451,0.0137329,-0.0323486,0.0683594,0.0463867
35,4,0.0332642,0.0350952,0.0305176,0.0241089,0.0485229,0.0137329,0.0296021,-0.00488281,0.0231934,0.0189209,-0.0283813,0.0296021,0.0393677
36,0,0.0234985,0.0408936,0.0274658,0.00549316,0.0286865,0.00579834,0.0149536,0.0161743,0.0125122,-0.0137329,-0.0363159,0.0378418,0.109863
36,1,0.0283813,0.0189209,0.0259399,0.0344849,0.0473022,0.0241089,0.039978,0.0198364,0.0131226,0.0256348,-0.027771,0.0201416,0.012207
36,2,0.0314331,0.0323486,0.0384521,-0.0189209,0.0592041,0.00152588,0.0234985,0.00579834,0.0088501,0.00488281,-0.0372314,0.0274658,0.0579834
36,3,0.0289917,0.038147,0.0305176,0.0134277,0.0469971,0.0222778,-0.00823975,0.00762939,0.022583,0.03479,-0.0274658,0.0201416,0.0601196
36,4,-0.0106812,0.0289917,0.0283813,-0.0326538,0.0485229,0.0219727,0.0152588,0.00946045,0.0213623,0.0714111,-0.0524902,0.0344849,0.0442505
37,0,0.0228882,0.0268555,0.0332642,0.0286865,0.126038,0.0268555,0.00823975,-0.00915527,0.0180054,0.0112915,-0.0326538,0.0305176,0.0592041
37,1,0.0210571,0.0265503,0.0314331,0.022583,0.0994873,0.020752,0.0283813,0.022583,0.0109863,0.0271606,-0.0411987,0.0177002,0.0292969
37,2,0.0189209,0.0576782,0.0250244,0.0189209,0.0222778,0.045166,0.012207,-0.0131226,0.0192261,0.022583,-0.0271606,0.0323486,0.039978
37,3,0.0296021,0.0799561,0.0262451,0.0299072,0.0558472,0.039978,0.0140381,-0.000610352,0.0238037,0.0170898,-0.0302124,0.0192261,0.015564
37,4,0.0189209,0.0375366,0.0372314,0.0775146,0.0436401,0.0296021,0.00183105,0.0112915,0.022583,0.0280762,-0.0250244,0.0244141,0.0119019
38,0,0.0195312,0.0198364,0.0335693,0.0299072,0.0250244,0.104065,0.00305176,0.0140381,0.0183105,0.0161743,-0.0320435,0.0137329,0.0241089
38,1,0.0189209,0.0265503,0.0286865,0.0247192,0.0183105,0.0402832,0.0125122,0.020752,0.0292969,0.0280762,-0.0375366,0.0222778,-0.00183105
38,2,0.0457764,0.0350952,0.0378418,0.00640869,0.0186157,0.0305176,0.0012207,0.0131226,0.010376,0.0219727,-0.0210571,0.0204468,0.0100708
38,3,0.0378418,0.0360107,0.00610352,0.0274658,0.0115967,0.0335693,0.00701904,0.0204468,0.0228882,-0.00335693,-0.0213623,0.0305176,0.0369263
38,4,0.0296021,0.0222778,0.0341797,0.0494385,0.0259399,0.0308228,0.0180054,0.0177002,0.0088501,0.0494385,-0.0198364,0.0234985,0.00396729
39,0,0.012207,0.0234985,0.0259399,0.0305176,0.0408936,0.0292969,0.012207,0.00579834,0.00518799,-0.00305176,-0.0335693,0.0335693,-0.0338745
39,1,0.0674438,0.0311279,0.0350952,0.03479,0.0115967,0.0234985,0.00732422,-0.000305176,0.0119019,-0.00396729,-0.0628662,0.0280762,-0.0152588
39,2,0.0265503,0.0442505,0.109558,0.0320435,0.0143433,0.0390625,0.0170898,0.010376,-0.0100708,0.00640869,-0.015564,0.0332642,0.0274658
39,3,0.0366211,0.0131226,0.0350952,0.0167847,0.0219727,0.0183105,0.0222778,0.0268555,0.00976562,0.0088501,-0.0180054,0.0268555,0.0216675
39,4,0.027771,0.0665283,0.0198364,0.022583,-0.00396729,0.0180054,0.0164795,0.00366211,0.0170898,0.00732422,-0.0253296,0.03479,0.0305176
40,0,0.0311279,0.0259399,0.0448608,0.0238037,-0.0231934,0.00946045,0.0256348,0.010376,0.0262451,0.00366211,-0.0247192,0.0326538,0.0164795
40,1,0.0372314,0.0537109,0.0848389,0.0305176,0.00244141,-0.0268555,0.038147,0.0137329,0.0393677,0.00518799,-0.0372314,-0.00366211,0.045166
40,2,0.0213623,0.0421143,0.039978,0.0390625,0.0247192,0.0369263,0.0415039,0.00549316,-0.0299072,0.0213623,-0.0274658,0.0231934,0.0418091
40,3,0.0247192,0.0241089,0.0296021,0.00640869,0.0323486,0.0228882,0.0216675,0.0112915,0.0268555,0.0723267,-0.0268555,0.0219727,0.0384521
40,4,0.0268555,0.00549316,0.0390625,0.0305176,0.0286865,0.0164795,0.022583,0.0366211,0.0189209,0.0109863,-0.0186157,0.0344849,0.0222778
41,0,0.0250244,0.0332642,0.0250244,0.0262451,0.0302124,0.032959,0.0177002,0.0170898,0.0177002,0.0222778,-0.0131226,0.0198364,0.0387573
41,1,0.0488281,0.0326538,0.0338745,0.0158691,0.0521851,0.0320435,0.0128174,0.0271606,0.0363159,0.0350952,-0.0216675,0.0210571,0.0192261
41,2,0.0109863,0.017395,0.0296021,0.0411987,0.0546265,0.0265503,0.0338745,-0.0479126,-0.000610352,0.0164795,0.0335693,0.0341797,0.0344849
41,3,0.00701904,0.0195312,0.0289917,0.0262451,0.0595093,0.0106812,0.0265503,0.0265503,0.0228882,0.0283813,-0.0259399,0.0265503,0.0109863
41,4,0.0357056,0.00640869,0.0280762,0.0720215,0.0488281,0.027771,0.0360107,0.0213623,0.0241089,0.0363159,0.017395,0.0158691,-0.0238037
42,0,0.0100708,0.022583,0.0152588,0.0439453,0.0469971,0.0112915,0.0161743,0.0201416,0.0387573,0.0286865,-0.00915527,0.0152588,-0.0012207
42,1,0.0289917,0.0167847,0.0314331,0.0299072,0.0576782,0.0134277,0.0164795,0.0134277,0.0463867,0.0320435,-0.0146484,0.00457764,0.0296021
42,2,0.0137329,0.00946045,0.0286865,0.0506592,0.0460815,0.0250244,0.0900269,0.0192261,0.0149536,0.0857544,-0.00610352,0.0128174,0.0460815
42,3,0.0177002,0.00640869,0.0222778,0.0286865,0.0378418,0.0137329,0.0363159,0.0192261,0.00640869,0.0445557,-0.0222778,0.0256348,0.0466919
42,4,0.00793457,0.000610352,0.0228882,0.0350952,0.038147,0.0115967,0.0320435,0.0302124,0.043335,0.0445557,-0.0238037,0.0878906,0.0445557
43,0,0.0189209,0.0268555,0.0350952,0.00366211,0.0354004,0.0241089,0.03479,0.00640869,0.0146484,0.0442505,-0.0228882,0.0360107,0.0418091
43,1,0.015564,0.0247192,-0.0134277,0.0375366,0.0393677,0.0827026,0.0323486,0.0134277,0.0134277,0.0387573,-0.0259399,0.0201416,0.0640869
43,2,0.0213623,0.00549316,0.0415039,0.0357056,0.039978,0.0195312,0.0338745,0.027771,0.00457764,0.0335693,-0.0292969,0.0186157,0.0473022
43,3,0.0119019,0.0234985,0.0244141,0.0213623,0.0390625,0.0238037,0.0314331,0.0180054,0.0280762,0.0360107,-0.0201416,0.00457764,0.0454712
43,4,-0.00274658,0.0234985,0.0360107,0.0631714,0.0598145,0.0198364,0.0296021,0.00915527,0.00915527,0.00701904,-0.0241089,0.0204468,0.0561523
44,0,0.0189209,0.00305176,0.03479,0.0219727,0.0457764,0.0149536,0.039978,-0.0265503,0.0146484,0.0219727,-0.022583,0.0320435,0.0567627
44,1,0.0479126,0.0109863,0.0256348,0.0436401,0.0445557,0.0137329,-0.00762939,0.0152588,0.0250244,0.0411987,-0.0335693,0.0177002,0.0946045
44,2,0.0164795,0.0686646,0.0204468,0.0210571,0.0418091,0.0256348,0.0265503,-0.00762939,0.00610352,0.0128174,-0.0424194,0.0402832,0.0372314
44,3,0.0204468,-0.000610352,0.0384521,0.0219727,0.0286865,0.0332642,0.020752,0.0271606,0.0183105,0.00152588,-0.0244141,0.0311279,0.0357056
44,4,0.0112915,0.00518799,-0.0222778,0.0518799,0.0268555,0.0247192,0.0360107,0.032959,0.0125122,0.00915527,-0.0161743,0.00976562,-0.00762939
45,0,0.0250244,0.022583,0.022583,0.00152588,0.0204468,0.038147,-0.0335693,0.020752,0.0109863,0.0189209,-0.0244141,0.0244141,-0.00366211
45,1,0.0140381,0.00366211,0.0408936,0.0344849,0.0332642,0.0262451,0.0213623,0.032959,0.00946045,0.00762939,-0.0170898,0.0402832,0.0131226
45,2,0.00823975,0.000610352,0.0253296,0.0750732,0.020752,0.0396729,0.0109863,0.00915527,0.00946045,0.000915527,-0.00244141,0.017395,0.000610352
45,3,-0.0183105,0.0164795,0.0274658,0.027771,0.0125122,0.055542,0.0164795,0.0280762,0.0186157,0.0112915,-0.00671387,0.0320435,0.0198364
45,4,0.0152588,0.0241089,0.0280762,0.0427246,0,0.0341797,-0.0219727,0.0390625,0.00854492,0.0448608,-0.00457764,0.0247192,0.0708008
46,0,0.00762939,0.027771,0.055542,0.0326538,0.017395,0.0430298,0.0201416,0.0289917,0.0137329,0.0115967,-0.000305176,0.0131226,0.0112915
46,1,0.00946045,0.00823975,0.0494385,0.0323486,0.00427246,0.0985718,0.027771,0.0317383,-0.0311279,0.00518799,-0.017395,0.0189209,-0.0119019
46,2,0.0219727,0.0479126,0.027771,0.0271606,-0.00396729,0.0338745,0.0326538,0.0454712,0.0137329,0.00335693,-0.0186157,0.0643921,0.0256348
46,3,0.0411987,0.0161743,-0.0335693,0.0357056,0.0286865,0.0378418,0.0268555,0.0320435,0.00946045,-0.00488281,-0.0253296,0.0109863,0.0253296
46,4,0.0161743,0.0274658,0.0192261,0.0262451,0.0228882,0.000305176,0.0305176,0.00946045,0.0201416,0.00427246,-0.0152588,0.0186157,0.0186157
47,0,0.0238037,-0.0421143,0.0311279,0.0323486,-0.0357056,0.0427246,0.0299072,0.0286865,0.0088501,0.00701904,0.00183105,0.0152588,0.0106812
47,1,0.0299072,0.0219727,0.027771,0.017395,0.0198364,0.0543213,0.0204468,0.0296021,0.0152588,-0.00671387,-0.0167847,-0.000915527,0.0497437
47,2,0.022583,0.0283813,0.0271606,0.0308228,0.0357056,0.0338745,0.032959,0.0219727,0.0387573,0.0100708,-0.0186157,-0.0152588,0.00762939
47,3,0.0158691,0.020752,0.0296021,0.0231934,0.0134277,0.0320435,0.0350952,0.0323486,0.0274658,0.000915527,-0.0137329,0.0253296,0.00640869
47,4,0.0241089,0.0146484,0.0546265,0.0332642,0.0152588,0.0460815,0.027771,0.0436401,0.0183105,0.0158691,-0.0149536,0.0149536,0.00183105
48,0,0.0219727,0.00793457,0.03479,0.0238037,0.0088501,0.0363159,0.0418091,0.0338745,0.00671387,0.0222778,-0.0186157,0.00854492,0.00823975
48,1,0.0698853,0.00549316,0.0299072,0.0195312,0.0216675,0.0265503,0.0344849,0.015564,0.0192261,0.00762939,-0.00915527,0.0146484,0.00274658
48,2,0.0305176,0.0213623,0.0790405,0.0305176,0.0204468,-0.0265503,0.0360107,0.0326538,-0.00579834,0.0088501,-0.00823975,0.0369263,0.00854492
48,3,0.0198364,0.0393677,0.0317383,0.0253296,0.020752,0.0186157,0.0378418,0.000610352,0.0259399,0.00366211,-0.0210571,0.0164795,0.0183105
48,4,0.038147,0.0259399,0.017395,0.0363159,0.0997925,0.0357056,0.0344849,-0.00244141,0.0344849,0.00305176,-0.0158691,0.0198364,0.0152588
49,0,0.0137329,0.0344849,0.0259399,0.0274658,0.0354004,-0.00518799,0.0299072,0.0311279,0.0314331,-0.00427246,-0.0253296,0.0125122,0.00274658
49,1,0.00518799,0.0216675,-0.0128174,0.0234985,0.0396729,0.0387573,0.0271606,0.0241089,0.0158691,0.00823975,-0.0140381,0.0112915,0.0317383
49,2,0.0137329,0.0228882,0.0265503,0.0430298,0.0418091,0.0311279,0.0219727,0.0323486,0.0189209,0.00762939,-0.0360107,0.00244141,0.0161743
49,3,0.0231934,-0.00457764,0.0253296,0.039978,0.0283813,0.0268555,0.0363159,0.0140381,0.00396729,0.032959,-0.0289917,-0.00457764,-0.043335
49,4,0.00793457,0.0137329,0.0201416,-0.0280762,0.0274658,0.0302124,0.0372314,0.0265503,0.0210571,0.0253296,-0.0140381,0.0167847,0.0213623
50,0,0.00427246,0.0189209,0.0628662,0.0177002,0.0305176,-0.0515747,0.0369263,0.0177002,0.0271606,0.0244141,-0.0323486,0.0161743,0.0344849
50,1,0.017395,0.012207,0.0134277,0.0280762,0.0482178,0.0250244,0.0366211,0.0247192,0.0308228,0.0283813,-0.0137329,0.0274658,0.0234985
50,2,0.0119019,0.0634766,0.0219727,0.0256348,0.0378418,0.0418091,0.0527954,0.0195312,-0.0012207,0.0213623,-0.0268555,0.0219727,0.0189209
50,3,0.0167847,0.0146484,0.0241089,0.0210571,0.0390625,0.00946045,0.0369263,0.0292969,0.0268555,0.0119019,-0.0549316,0.0219727,0.0335693
50,4,-0.000915527,0.0204468,0.0201416,0.0344849,0.0332642,0.043335,0.0350952,0.0210571,-0.00793457,0.0308228,-0.0186157,-0.0509644,0.0396729
51,0,0.0308228,0.0125122,0.0109863,0.015564,0.0311279,0.0219727,0.0372314,0.022583,0.0265503,0.0372314,-0.0259399,0.0244141,0.0134277
51,1,0.00854492,0.00976562,0.00976562,0.0274658,0.0289917,0.0616455,0.0369263,0.0195312,0.00762939,0.0311279,-0.0231934,0.0128174,0.0332642
51,2,0.0137329,0.00183105,0.0183105,0.0241089,0.0344849,0.0198364,0.0369263,0.022583,0.0939941,0.0195312,-0.0198364,0.0332642,0.0274658
51,3,0.0314331,0.0253296,0.0198364,0.0421143,0.0457764,0.0372314,0.0152588,0.0891113,0.0192261,0.0320435,-0.0213623,0.00946045,0.0253296
51,4,0.0241089,0.0247192,0.0238037,0.0231934,-0.015564,0.0247192,0.0311279,0.020752,0.00152588,0.015564,-0.0183105,0.0286865,0.0219727
52,0,-0.0149536,0.0216675,0.0119019,0.0256348,-0.0332642,0.0335693,0.0744629,0.020752,0.0259399,0.050354,-0.0198364,0.0268555,0.00762939
52,1,0.00152588,0.0100708,0.0143433,0.0268555,0.00549316,0.0302124,0.0531006,0.0430298,0.0195312,0.00335693,-0.00793457,0.0140381,-0.0326538
52,2,0.0247192,0.015564,0.0131226,0.0341797,-0.000915527,0.0421143,0.0177002,0.0323486,0.0387573,-0.00396729,-0.0137329,0.0143433,0.00732422
52,3,0.0238037,-0.0317383,0.010376,0.0213623,0.0527954,0.0564575,0.0271606,0.0363159,0.0183105,0.0299072,-0.0115967,0.0140381,0.00732422
52,4,0.0204468,0.0262451,0.0128174,0.0244141,0.0265503,0.0411987,0.0537109,0.0372314,0.0259399,0.0512695,-0.0137329,0.0106812,-0.0592041
53,0,0.015564,-0.00427246,0.00793457,0.0234985,0.0479126,0.0387573,0.0262451,0.0405884,0.0338745,0.0238037,-0.0479126,0.00701904,0.020752
53,1,0.0125122,0.0134277,0.0256348,0.0213623,0.0521851,0.0338745,0.043335,0.0265503,0.0177002,0.00640869,-0.00213623,0.0881958,0.017395
53,2,0.0131226,0.0177002,0.00793457,0.0183105,0.0668335,0.0231934,0.0372314,0.0234985,0.0384521,0.0286865,-0.0134277,0.00793457,0.00549316
53,3,0.0149536,0.0396729,0.0280762,0.0335693,0.078125,0.0280762,0.000915527,0.00274658,0.0286865,0.0543213,-0.00915527,0.022583,0.00854492
53,4,0.012207,0.00610352,0.071106,0.0198364,0.0469971,-0.0314331,0.0616455,0.0146484,0.0219727,0.0286865,-0.0177002,0.0201416,0.0289917
54,0,0.0204468,0.012207,0.0195312,0.0299072,0.0457764,0.0289917,0.0805664,0.0186157,0.020752,0.0567627,-0.0149536,0.0210571,0.0375366
54,1,0.0152588,-0.0012207,0.0424194,0.0231934,0.057373,0.00640869,0.0253296,0.015564,0.0149536,0.0372314,-0.0213623,0.0335693,0.0149536
54,2,0.0231934,-0.00305176,0.012207,0.043335,0.0479126,0.0292969,0.0341797,0.0210571,0.0268555,0.0302124,-0.0198364,0.0247192,0.0164795
54,3,0.0158691,0.0308228,-0.0109863,0.0378418,0.0350952,0.0299072,0.0393677,0.0454712,0.0189209,0.0201416,-0.0311279,0.010376,0.0167847
54,4,0.0265503,0.0274658,0.0012207,0.0491333,0.0296021,0.0177002,0.0311279,0.0613403,0.0265503,0.0149536,0.0109863,-0.00274658,0.00396729
55,0,0.0292969,-0.0445557,0.0115967,0.0161743,-0.00488281,0.0466919,0.0375366,0.0323486,0.0170898,0.017395,-0.0238037,0.0198364,0.0167847
55,1,0.0152588,0.00213623,0.00274658,0.0201416,0.03479,0.0289917,0.0222778,0.0372314,0.00915527,0.017395,-0.0180054,0.0137329,0.0100708
55,2,0.0216675,0.0119019,0.010376,0.0604248,0.0088501,0.0265503,0.0115967,0.0177002,0.022583,0.0198364,-0.020752,0.0164795,0.00244141
55,3,0.0201416,0.0259399,0.0131226,0.000610352,0.0234985,0.0262451,0.0280762,0.0424194,0.0234985,0.0436401,-0.0146484,0.0421143,0.000915527
55,4,0.039978,0.0219727,0.0210571,0.0286865,0.0247192,0.0512695,0.0360107,0.0430298,0.0561523,0.0283813,0.0231934,0.00610352,0.00244141
56,0,0.0140381,0.0177002,0.00793457,0.0332642,0.0140381,0.0323486,0.0262451,0.0518799,0.020752,0.0241089,-0.0234985,0.0125122,-0.000305176
56,1,0.00854492,0.0125122,0.00854492,0.0234985,0.000610352,0.0241089,0.0402832,0.0369263,0.027771,0.0238037,-0.0125122,0.010376,0.0119019
56,2,0.0201416,-0.00457764,-0.0250244,0.0222778,0.0161743,0.0204468,0.0204468,0.0357056,0.0161743,0.0158691,-0.0115967,0.0192261,-0.00396729
56,3,0.0119019,0.0216675,0.0143433,0.0186157,0.00579834,0.0262451,0.0323486,0.0299072,0.0250244,0.0198364,-0.0125122,0.00579834,0.0158691
56,4,0.0274658,0.0271606,-0.000305176,0.0228882,0.0216675,0.0222778,0.0180054,0.0369263,0.015564,0.0186157,-0.0183105,0.010376,0.0372314
57,0,0.0161743,0.0195312,0.0616455,0.0137329,0.0119019,-0.00915527,0.0378418,0.0256348,0.0195312,0.0238037,-0.020752,0.0289917,0.0280762
57,1,0.0686646,0.0161743,0.00427246,-0.0119019,0.0274658,0.0411987,0.0341797,0.027771,0.020752,0.0311279,-0.0161743,0.0164795,0.0180054
57,2,0.0265503,-0.0222778,0.0366211,0.0167847,0.0302124,0.0164795,0.0411987,0.0357056,0.0265503,0.0247192,-0.0244141,0.00457764,0.0106812
57,3,0.0192261,0.0222778,0.00915527,0.0131226,0.0360107,0.0250244,0.0286865,-0.00671387,0.0213623,0.0296021,-0.0286865,0.000915527,0.0210571
57,4,0.0234985,0.0180054,0.0158691,0.0177002,0.017395,0.0311279,0.0158691,0.027771,0.0259399,0.0375366,-0.0262451,0.0125122,0.0231934
58,0,0.0210571,0.00946045,0.0088501,0.0305176,0.0341797,0.0384521,0.0415039,0.0213623,0.0088501,0.0274658,-0.0247192,0.0408936,0.0323486
58,1,0.0164795,0.0158691,0.00915527,0.0335693,0.0311279,0.0268555,0.038147,0.0247192,0.0213623,-0.00915527,-0.00762939,0.0088501,0.0192261
58,2,0.0128174,0.017395,0.00366211,0.010376,0.0219727,0.0314331,0.0390625,-0.0332642,0.0265503,0.0256348,-0.0140381,0.00640869,0.0183105
58,3,0.0216675,0.0112915,0.0234985,0.00793457,0.00701904,0.0140381,0.0344849,0.0283813,0.0360107,0.0537109,-0.0125122,0.0183105,0.00366211
58,4,0.0289917,0.0216675,0.0204468,0.0244141,0.00915527,0.0186157,0.0320435,0.0268555,0.0405884,0.0308228,-0.00610352,0.00976562,0.00701904
59,0,0.0201416,0.0152588,0.00762939,0.0128174,0.00793457,0.0274658,0.0534058,0.0500488,0.0286865,0.0354004,-0.0180054,0.0088501,0
59,1,0.0177002,0.0149536,0.0125122,0.0250244,0.017395,0.0378418,0.0274658,0.0463867,0.00152588,0.0280762,-0.0186157,0.00640869,0.00366211
59,2,0.0189209,0.0259399,0.0164795,0.0146484,0.0317383,0.0219727,0.0152588,0.0537109,0.0326538,0.0323486,-0.0231934,0.0167847,-0.00305176
59,3,0.0100708,0.0131226,0.00854492,0.0164795,0.0180054,0.022583,0.0271606,0.0601196,0.0283813,0.0640869,0.00152588,0.0177002,-0.0115967
59,4,0.0161743,0.0238037,0.0204468,0.0210571,0.038147,0.0253296,0.0164795,0.0308228,0.0244141,0.0387573,-0.0109863,-0.0247192,0.0109863
60,0,0.0469971,0.00823975,0.00183105,0.0106812,0.0350952,0.0253296,0.0363159,0.0448608,0.027771,0.0427246,-0.017395,0.0152588,0.00427246
60,1,0.0323486,0.0323486,-0.0180054,0.0186157,0.0198364,-0.0219727,0.0271606,0.0332642,-0.00701904,0.0152588,-0.0170898,0.00915527,0.0360107
60,2,0.0341797,0.0170898,0.00610352,0.00854492,0.0210571,-0.0189209,0.0274658,0.0292969,-0.0289917,0.0213623,-0.0268555,-0.0341797,0.0259399
60,3,0.0180054,0.0262451,0.00915527,0.00152588,0.0164795,0.0128174,0.0311279,0.0283813,0.0350952,0.0158691,-0.0112915,0.0222778,0.00976562
60,4,0.0213623,0.0170898,0.0106812,0.010376,0.0177002,-0.0210571,0.0357056,0.0354004,0.0491333,0.017395,-0.0128174,0.0186157,0.0485229
61,0,0.0262451,0.0228882,0.0198364,0.0219727,0.0289917,0.0100708,0.0219727,0.0421143,0.0289917,0.0262451,-0.0296021,0.0201416,0.0119019
61,1,0.0247192,0.00915527,0.0134277,0.00549316,0.0222778,0.00305176,0.0372314,0.0265503,0.0262451,0.0283813,-0.0222778,0.0189209,0.0115967
61,2,0.0393677,0.0256348,-0.00518799,-0.0158691,0.0234985,0.0247192,0.0769043,0.0152588,0.0354004,0.0344849,-0.0286865,0.017395,0.0421143
61,3,0.0271606,0.0323486,0.00610352,0.0152588,0.0506592,0.012207,0.0250244,0.0744629,0.0427246,0.0271606,0.00793457,0.0262451,0.0436401
61,4,0.0448608,0.0158691,0.0164795,-0.0427246,0.0192261,0.0109863,0.0616455,0.0344849,0.0308228,0.0463867,0.0131226,0.0183105,0.0296021
62,0,0.022583,0.0253296,0.0189209,0.020752,0.0216675,0.00274658,0.0317383,0.027771,0.0283813,0.0259399,-0.0366211,0.0131226,0.032959
62,1,0.0280762,-0.038147,0.0109863,0.0164795,0.0357056,0.0204468,0.022583,0.00823975,0.0430298,0.0430298,-0.0350952,-0.00244141,0.0332642
62,2,0.00701904,0.0323486,-0.0390625,0.0161743,0.0192261,0.0134277,0.0506592,0.0231934,0.0216675,0.0201416,-0.0299072,0.022583,0.0527954
62,3,-0.0143433,0.0250244,0.0100708,0.0112915,0.0164795,0.0247192,0.0134277,0.032959,0.0119019,0.017395,-0.0125122,0.0167847,0.0463867
62,4,0.0378418,0.0271606,-0.00274658,0.0143433,0.0210571,-0.038147,0.0271606,0.0134277,0.0811768,0.0384521,-0.0265503,0.0222778,0.0244141
63,0,0.0415039,0.0143433,0.0143433,0.0268555,0.0228882,0.00946045,-0.0332642,0.0512695,0.0262451,0.0210571,-0.0494385,0.0222778,0.0338745
63,1,0.0686646,0.0256348,0.0158691,0.010376,0.0222778,0.0204468,0.0341797,0.0210571,0.0219727,0.0262451,-0.027771,0.0161743,0.0152588
63,2,0.0271606,0.0234985,0.00976562,0.00854492,0.00671387,0.015564,0.0128174,0.0265503,0.0360107,0.0500488,-0.0344849,0.0256348,0.00701904
63,3,0.0216675,0.0195312,0.0128174,-0.00244141,0.0146484,0.0234985,-0.00183105,0.0231934,0.0253296,0.0332642,-0.0326538,0.0177002,0.0106812
63,4,0.0314331,0.0247192,-0.0228882,0.0143433,0.0317383,0.0344849,0.00701904,0.0317383,0.067749,0.0457764,-0.0332642,0.0210571,0.0360107
64,0,0.0299072,0.0271606,0.00396729,0.0134277,0.0198364,0.0469971,0.0183105,0.0320435,0.0186157,0.0354004,-0.0012207,0.00305176,0.0228882
64,1,0.0366211,0.0192261,0.0180054,0.010376,0.00732422,0.03479,0.0332642,0.0436401,0.0268555,0.0384521,-0.0189209,0.0161743,0.0210571
64,2,0.0317383,-0.0262451,0.0231934,0.0131226,-0.032959,0.0234985,0.015564,0.00610352,0.03479,0.03479,-0.0274658,0.0238037,0.0131226
64,3,0.0259399,0.0204468,0.0299072,0.0146484,0.0183105,0.012207,0.0247192,0.0302124,0.0299072,0.038147,-0.0149536,0.0238037,0.0372314
64,4,0.045166,0.0366211,0.0198364,0.00823975,0.0198364,0.0354004,0.0128174,0.0238037,-0.0170898,0.050354,-0.0274658,0.0167847,0
65,0,0.0466919,0.0115967,0.032959,0.00549316,0.0247192,0.0192261,0.0204468,0.0390625,0.0512695,0.0299072,-0.020752,0.0479126,0.0189209
65,1,0.0244141,0.022583,-0.0424194,0.00915527,0.0271606,-0.0265503,0.0234985,0.0296021,0.0646973,0.0350952,-0.0238037,0.0970459,0.015564
65,2,0.027771,0.0219727,0.0112915,0.012207,0.0653076,0.0177002,0.0189209,0.0686646,0.0341797,0.022583,-0.0314331,0.0473022,0.00823975
65,3,0.0393677,0.0198364,0.0170898,0.00457764,-0.017395,0.0201416,0.0311279,0.0234985,0.0430298,0.0772095,-0.0228882,0.0262451,0.0152588
65,4,-0.0180054,0.0320435,0.0280762,0.0106812,-0.0170898,0.0158691,0.0234985,0.0292969,0.0494385,0.0271606,-0.0216675,0.0149536,0.0186157
66,0,0.0360107,0.0210571,0.0143433,0.0125122,-0.0195312,0.00579834,0.00335693,0.0253296,0.0512695,0.0366211,-0.0280762,0.0292969,0.00579834
66,1,0.0335693,-0.0137329,0.0274658,0.0128174,0.03479,0.0189209,0.0167847,0.0521851,0.0424194,0.0274658,-0.045166,0.017395,0.0152588
66,2,0.0372314,0.0338745,0.0143433,0.010376,-0.00976562,0.0109863,0.0238037,0.0210571,0.0332642,0.0421143,-0.0268555,0.0274658,0.0170898
66,3,0.0210571,0.0231934,0.0289917,0.00793457,0.00366211,0.0299072,0.0195312,0.0222778,0.0424194,0.0292969,-0.0292969,0.0320435,0.0268555
66,4,0.0161743,0.032959,0.0219727,0.0119019,0.00152588,-0.00427246,0.0241089,0.0204468,0.0256348,0.0198364,-0.0228882,0.0244141,0.104065
67,0,0.0482178,0.0360107,0.0280762,0.00701904,0.00701904,-0.0170898,0.0314331,0.00854492,0.0415039,0.0228882,-0.0357056,0.038147,0.0360107
67,1,0.0387573,0.0283813,0.0119019,0.000610352,0.0204468,0.0177002,0.0195312,-0.00579834,0.0146484,0.0845337,-0.0424194,0.0216675,-0.0219727
67,2,0.0323486,0.0213623,0.00915527,0.0656128,0.0387573,-0.0106812,-0.0164795,0.0408936,0.0378418,0.0369263,-0.0512695,0.0204468,0.0210571
67,3,0.0289917,0.0292969,0.0143433,-0.00213623,0.0369263,0.0143433,0.0253296,0.0189209,0.0271606,0.0375366,-0.0375366,0.0280762,0.00793457
67,4,0.0326538,0.0125122,-0.0256348,0.0112915,0.0387573,-0.0360107,0.0167847,0.0198364,0.072937,0.0311279,-0.0238037,0.0570679,0.0210571
68,0,0.0372314,0.0326538,0.0143433,0.0106812,0.03479,0.00946045,0.0305176,0.00762939,0.0314331,0.027771,-0.0167847,0.090332,0.0283813
68,1,0.0314331,0.0363159,0.0274658,0.0186157,0.00946045,0.0247192,0.00823975,0.0100708,0.0418091,0.0326538,0.012207,0.0241089,0.0222778
68,2,0.0286865,0.0247192,-0.0180054,0.0256348,0.0491333,-0.0161743,0.0247192,0.0189209,-0.0231934,0.0241089,-0.0262451,0.0357056,0.0161743
68,3,0.0299072,0.0280762,0.0341797,0.0469971,0.039978,0.0100708,0.0323486,0.0210571,0.0286865,-0.0250244,-0.0280762,0.0222778,0.0170898
68,4,0.0466919,0.0268555,0.0241089,0.0106812,0.0335693,0.0216675,0.0109863,0.0558472,0.0341797,0.0131226,-0.0259399,0.0152588,0.0250244
69,0,0.027771,0.0494385,0.0228882,0.0222778,0.0180054,0.00518799,0.0143433,0.0335693,0.0445557,0.0244141,-0.0296021,0.0744629,0.00915527
69,1,0.0283813,0.0125122,0.0161743,0.0131226,-0.043335,0.00793457,0.0134277,0.0323486,0.0296021,0.0234985,-0.0299072,0.0430298,0.0100708
69,2,0.0354004,-0.000305176,0.0259399,0.00366211,0.0341797,0.0106812,0.0189209,0.0463867,0.0308228,0.0430298,-0.020752,0.0350952,0.0192261
69,3,0.0228882,-0.00213623,0.0317383,0.00640869,0.0524902,-0.00335693,0.012207,0.0326538,0.0320435,0.0335693,-0.00213623,0.0338745,0.00396729
69,4,0.0314331,0.0286865,0.0198364,0.0088501,0.0186157,0.0100708,0.0253296,0.022583,0.0256348,0.0128174,-0.0201416,0.0363159,-0.00579834
70,0,0.0256348,0.0250244,0.0183105,0.0595093,0.00701904,0.0213623,0.0234985,0.027771,0.0430298,0.0238037,-0.0363159,0.0360107,0.0259399
70,1,0.0164795,0.0180054,0.0396729,0.012207,0.0262451,-0.0311279,0.0164795,0.0213623,0.0238037,0.0274658,-0.0384521,0.0994873,0.045166
70,2,0.0439453,0.0323486,0.0323486,0.0222778,0.00488281,0.017395,0.0228882,0.0234985,0.0231934,0.0396729,-0.0460815,0.0268555,0.045166
70,3,0.00518799,0.0247192,0.0308228,0.00762939,0.0222778,0.0125122,0.0421143,0.00579834,0.032959,0.0317383,-0.0784302,0.0250244,0.0387573
70,4,0.0280762,0.038147,0.0186157,0.0149536,-0.00488281,0.00579834,0.0289917,0.0186157,-0.0158691,0.032959,-0.0421143,0.0787354,0.0341797
71,0,0.0402832,0.0405884,0.0363159,0.00610352,-0.0250244,-0.0515747,0.0100708,0.0167847,0.0820923,0.0488281,-0.0354004,0.0216675,0.0286865
71,1,0.0354004,0.022583,0.0262451,-0.0088501,-0.0299072,0.0152588,0.0109863,0.0292969,0.0320435,0.0463867,-0.0350952,0.0244141,0.0335693
71,2,0.0366211,0.0411987,0.039978,0.012207,-0.0250244,0.00396729,0.00244141,0.0186157,0.0296021,0.0314331,-0.0360107,0.0161743,0.0402832
71,3,0.0195312,0.045166,0.0137329,0.0100708,-0.00183105,0.0204468,0.0540161,0.032959,0.0186157,0.0146484,-0.0314331,0.0244141,0.0369263
71,4,0.0109863,0.0296021,0.000610352,0.0149536,0.00579834,0.0744629,0.00762939,0.0210571,0.0546265,0.0405884,-0.0357056,-0.0286865,0.0344849
72,0,0.0268555,0.0497437,0.00701904,0.0238037,0.0195312,0.0198364,0.0183105,0.0302124,0.0274658,0.0354004,-0.0384521,0.03479,0.038147
72,1,0.0259399,0.0820923,0.0378418,0.0088501,-0.0131226,0.0115967,0.0125122,0.0259399,0.00274658,0.0326538,-0.0387573,0.0134277,0.0250244
72,2,0.0421143,0.0421143,0.022583,0.00335693,0.0308228,0.0216675,0.00946045,0.0772095,0.0213623,0.0323486,-0.0204468,0.0219727,0.0247192
72,3,0.0183105,0.0338745,0.00396729,0.0198364,0.039978,0.0323486,0.00488281,0.0259399,0.0180054,0.0286865,-0.0238037,0.0314331,0.00274658
72,4,0.0253296,0.0167847,0.0286865,0.0195312,0.0320435,0.0189209,0.0134277,0.0256348,0.012207,0.0390625,-0.0180054,0.0405884,0.0238037
73,0,-0.0216675,0.0195312,0.0268555,0.0161743,0.0326538,0.0186157,0.0158691,0.0231934,0.0219727,0.0411987,-0.062561,0.0335693,0.0125122
73,1,0.0231934,0.0933838,0.0219727,0.0131226,0.0296021,0.0192261,0.010376,0.0213623,0.0234985,0.0497437,-0.0259399,0,0.00579834
73,2,0.0216675,0.0164795,0.0253296,0.0213623,0.0271606,0.0140381,0.00396729,-0.00366211,0.00427246,0.0292969,-0.0585938,0.0360107,0
73,3,0.027771,0.038147,0.0198364,0.0256348,0.0396729,0.00335693,0.0143433,0.0299072,0.0314331,0.0167847,-0.0320435,0.038147,0.0128174
73,4,0.0265503,0.0289917,0.0323486,0.0271606,0.03479,0.0219727,0.0549316,0.0363159,0.0271606,0.00610352,-0.0305176,0.0308228,-0.0723267
74,0,0.0250244,0.0350952,0.0219727,0.0158691,0.0415039,0.0219727,0.0143433,0.0167847,0.0152588,0.0222778,-0.0204468,0.00946045,-0.0115967
74,1,0.0363159,0.0283813,0.0302124,0.0271606,0.0387573,0.0189209,0.0256348,0.0192261,0.022583,0.0320435,-0.0228882,0.0183105,-0.0140381
74,2,0.0314331,-0.0192261,0.00946045,0.0210571,-0.0112915,0.0146484,0.0186157,0.0784302,0.0198364,0.0198364,-0.0302124,0.0311279,0.0415039
74,3,0.0280762,0.0445557,0.0271606,0.017395,0.0363159,0.0244141,0.0115967,0.00305176,0.0219727,0.00762939,-0.0262451,0.0149536,0.100403
74,4,0.0427246,0.0186157,0.0250244,0.0250244,0.0354004,-0.00732422,0.0210571,0.012207,0.0186157,0.0192261,-0.0238037,0.0308228,0.0393677
75,0,0.0393677,0.0723267,0.0125122,0.0164795,0.0421143,0.00579834,0.0247192,0.0088501,0.0344849,0.0128174,-0.0292969,0.0332642,-0.00183105
75,1,0.0350952,0.0344849,0.03479,0.0323486,0.0256348,0.00793457,0.00915527,0.0112915,0.000915527,0.0256348,-0.0302124,0.057373,0.0421143
75,2,-0.00732422,0.0283813,0.0375366,0.0564575,0.020752,0.00793457,0.00457764,0.00732422,0.0192261,0.0088501,-0.0323486,0.0311279,0.0512695
75,3,0.0283813,0.0338745,0.0427246,0.0164795,0.0152588,0.0759888,0.0302124,0.00305176,-0.0448608,0.0259399,-0.0390625,0.0274658,0.0598145
75,4,0.0302124,0.0256348,0.03479,0.0213623,0.00823975,0.00610352,0.0109863,0.00701904,0.0280762,0.0775146,-0.0259399,0.0418091,0.0393677
76,0,0.0167847,0.0363159,0.0338745,0.0311279,0.00793457,0.0164795,0.020752,-0.00732422,0.022583,0.0131226,-0.045166,0.0390625,0.0549316
76,1,0.0415039,0.0244141,0.0253296,0.022583,0.022583,0.0152588,0.0213623,-0.00671387,0.0189209,0.0195312,-0.0485229,0.03479,0.0476074
76,2,0.0408936,0.0228882,0.0360107,0.0219727,0.0164795,0.0119019,0.0219727,-0.0332642,0.00762939,0.0201416,-0.0802612,0.0390625,0.0338745
76,3,-0.00213623,0.0518799,0.0292969,0.020752,0.0338745,0.0244141,0.0213623,0.0222778,0,0.010376,-0.0402832,0.0299072,0.0421143
76,4,0.0384521,0.0323486,0.0320435,0.020752,0.0772095,0.0210571,0.0299072,0.0143433,0.00976562,0.0247192,-0.0338745,0.0164795,0.017395
77,0,0.0302124,0.0405884,0.0387573,0.0369263,0.017395,0.0357056,0.00854492,0.00762939,0.0436401,0.00793457,-0.0387573,0.0436401,0.0372314
77,1,0.0372314,0.0335693,0.0302124,0.0228882,-0.00244141,0.0170898,0.0457764,0.0268555,0.0161743,0.057373,-0.0262451,0.0338745,0.0720215
77,2,0.03479,0.0363159,0.0274658,0.032959,0.0601196,0.0088501,0.0299072,0.0131226,0.0317383,0.0167847,-0.0662231,0.0283813,0.020752
77,3,0.0823975,0.0250244,0.0494385,0.0698853,0.0280762,0.0234985,0.0137329,0.0198364,-0.0012207,0.00335693,-0.0234985,0.0256348,0.0363159
77,4,0.0540161,0.0323486,0.0305176,0.0335693,0.0372314,0.00579834,0.00976562,0.0213623,0.0106812,0.00793457,-0.027771,0.0262451,0.017395
78,0,0.0192261,0.0326538,0.0564575,0.0350952,0.0314331,0.0140381,0.0180054,0.0180054,0.0213623,0.0183105,-0.0302124,0.0387573,0.038147
78,1,0.0350952,0.0204468,0.043335,0.0311279,0.0442505,-0.00640869,0.0213623,0.00457764,0.0143433,0.0106812,-0.0299072,0.0415039,0.0259399
78,2,0.0396729,0.0164795,-0.0369263,0.0186157,0.0180054,0.0350952,0.0216675,0.0128174,0.0253296,0.00976562,-0.0338745,0.0210571,0.0119019
78,3,0.0259399,0.0427246,0.0213623,0.0393677,0.0253296,0.0506592,0.000610352,0.0222778,0.00671387,0.0228882,-0.0305176,0.0357056,0.0274658
78,4,0.0326538,0.0524902,0.00701904,0.0357056,0.00396729,-0.0259399,0.00244141,0.0137329,0.0488281,0.0183105,-0.038147,0.022583,0.0109863
79,0,0.0384521,0.0244141,0.0286865,0.0177002,0.0109863,0.0234985,0.0292969,0.0170898,0.0201416,0.00518799,-0.0357056,0.0256348,0.0106812
79,1,0.0320435,0.0201416,0.0411987,0.0311279,0.0506592,0.0601196,0.0100708,-0.0375366,0.010376,0.0213623,-0.0308228,0.0387573,0.0143433
79,2,0.032959,0.0418091,0.0256348,0.0213623,-0.00823975,0.0170898,0.010376,0.027771,0.010376,0.0152588,-0.0170898,0.0338745,0.0128174
79,3,0.0161743,0.0460815,0.0430298,0.0518799,0.0234985,0.0234985,0.0415039,0.00305176,0.0143433,0.0265503,-0.00396729,0.0335693,0.0338745
79,4,0.0357056,0.0415039,0.0201416,0.027771,0.00671387,0.0241089,0.0268555,0.017395,0.00976562,0.0244141,-0.0216675,0.0900269,0.0311279
80,0,0.032959,0.0292969,0.0683594,0.0216675,0.0244141,0.0308228,0.0192261,0.0134277,0.0134277,0.0332642,-0.0344849,0.0305176,0.0210571
80,1,0.0332642,0.015564,0.0378418,0.0445557,0.0109863,0.00579834,0.0143433,-0.0360107,0.0137329,0.0149536,-0.0308228,0.027771,0.0292969
80,2,0.0369263,0.0201416,0.0320435,0.0543213,0.0088501,0.0259399,0.0238037,0.00854492,0.0198364,0.0100708,-0.0149536,0.0253296,0.0457764
80,3,0.0204468,0.0280762,0.0250244,0.0457764,0.0216675,0.0198364,0.0216675,-0.00732422,0.0204468,0.0234985,-0.0204468,0.032959,0.043335
80,4,0.00305176,0.0274658,0.0234985,-0.00579834,0.0250244,0.0247192,0.0183105,0.00396729,0.0201416,0.0219727,-0.0222778,0.0253296,0.0622559
81,0,0.0408936,0.0305176,0.0289917,0.0286865,0.038147,0.017395,0.0161743,0.00488281,0.0341797,0.0244141,-0.00396729,0.0396729,0.0408936
81,1,0.0320435,0.0177002,0.0256348,0.0311279,0.00244141,0.0189209,0.0292969,0.00183105,0.00762939,0.0183105,-0.0222778,0.0308228,0.0402832
81,2,0.0161743,0.0210571,0.0320435,0.0421143,0.0369263,0.022583,0.0320435,0.0167847,0.00793457,-0.012207,-0.0247192,0.0250244,0.0244141
81,3,0.0250244,0.0213623,0.0366211,0.0286865,-0.0274658,0.0289917,0.0106812,0.020752,0.0256348,0.0234985,0.00701904,0.0195312,0.0357056
81,4,0.0427246,0.0332642,0.0311279,0.0637817,0.0271606,0.0183105,-0.0170898,0.027771,0.0186157,-0.0601196,-0.0189209,0.0228882,-0.00854492
82,0,0.0311279,0.0259399,0.0448608,0.0357056,0.0354004,0.043335,0.00823975,0.0115967,0.00366211,0.0131226,-0.0222778,0.0326538,0.043335
82,1,0.0253296,0.0268555,0.0302124,0.0265503,0.00518799,0.0238037,0.0216675,0.0158691,-0.0204468,0.0134277,-0.0204468,-0.0280762,0.0314331
82,2,0.0314331,0.0308228,0.020752,0.0259399,0.0509644,0.0247192,0.038147,0.00549316,-0.00640869,0.00518799,-0.0228882,0.0305176,0.0354004
82,3,0.0238037,0.0265503,0.0177002,0.0286865,0.0274658,-0.015564,0.0195312,0.0152588,-0.0613403,0.00305176,-0.0299072,0.0469971,0.03479
82,4,0.0442505,0.0357056,0.0210571,0.0393677,0.0180054,0.0299072,0.0234985,0.0256348,0.00366211,0.0128174,-0.0256348,0.0146484,0.0537109
83,0,0.0360107,0.0323486,0.0292969,0.00732422,0.0125122,0.0305176,0.0192261,0.0149536,-0.00823975,0.0112915,-0.0247192,0.0161743,0.0323486
83,1,0.0363159,0.0183105,0.0354004,0.0286865,0.0222778,-0.00396729,-0.0271606,0.0149536,0.00274658,-0.000915527,-0.0143433,0.0292969,0.0286865
83,2,0.0198364,0.027771,0.0253296,0.0372314,0.000610352,0.0299072,0.0216675,0.0445557,0.0234985,0.017395,-0.00915527,0.017395,0.0244141
83,3,0.0424194,0.03479,0.0335693,-0.0189209,0.0372314,0.0305176,0.00274658,0.00305176,0.00793457,-0.00762939,-0.0469971,0.0314331,0.050354
83,4,0.0274658,0.0439453,0.0289917,0.0314331,0.0241089,0.0213623,0.0268555,0.00823975,0.0195312,0.017395,-0.0158691,0.020752,0.0366211
84,0,0.0335693,-0.0158691,0.0320435,0.0280762,0.0656128,0.0192261,0.0161743,0.0231934,0.00793457,0.00946045,-0.0286865,0.0192261,0.0372314
84,1,0.015564,0.0317383,0.0369263,0.0289917,0.0308228,0.0497437,0.0268555,0.0149536,0.0177002,0.0222778,-0.0222778,0.0192261,0.0384521
84,2,-0.0115967,0.0350952,0.0158691,-0.0292969,0.0167847,0.0280762,0.0286865,0.0228882,0.00305176,0.0289917,-0.0170898,-0.0115967,0.0289917
84,3,0.0292969,0.022583,0.00427246,0.0500488,0.0430298,0.10498,0.0308228,0.0125122,0.0619507,0.0311279,-0.0210571,-0.0250244,0.0354004
84,4,0.0231934,0.0289917,0.0210571,0.0457764,0.0256348,0.0201416,0.00793457,0.0204468,0.0177002,0.0802612,-0.0170898,0.0222778,0.0598145
85,0,0.015564,0.0335693,0.0292969,0.0149536,0.0430298,0.032959,0.0408936,0.00671387,0.00457764,0.0387573,-0.0115967,0.027771,0.0482178
85,1,0.0152588,0.0265503,0.0286865,0.0283813,0.0128174,0.0180054,0.0146484,0.0177002,0.0112915,0.00488281,-0.0134277,0.0286865,-0.0292969
85,2,0.0146484,0.0366211,0.0195312,0.0320435,0.0308228,-0.00915527,0.0350952,0.00640869,0.00518799,0.0201416,-0.0268555,0.0283813,0.0424194
85,3,0.0152588,0.0234985,0.0244141,0.0265503,0.00701904,0.0201416,0.0302124,0.00427246,0.0131226,0.0292969,-0.0265503,-0.0253296,0.0445557
85,4,0.032959,0.0271606,0.0177002,0.0210571,0.0164795,0.00274658,0.0405884,0.0180054,0.015564,0.0268555,-0.0296021,0.010376,0.0390625
86,0,0.0158691,0.0140381,-0.0140381,0.0164795,0.020752,-0.00793457,0.0323486,0.0140381,0.015564,0.0210571,-0.0350952,0.00915527,0.0238037
86,1,0.00732422,0.0186157,0.0234985,0.0299072,0.085144,0.0186157,0.0332642,0.0723267,0.0112915,0.0268555,-0.0280762,0.03479,0.0430298
86,2,0.0189209,-0.0424194,0.027771,0.0408936,-0.0247192,0.00732422,0.0161743,0.0219727,0.0137329,0.0305176,-0.0256348,0.0180054,0.0482178
86,3,0.0283813,0.0637817,0.0186157,0.0311279,0.0460815,0.0265503,0.0375366,0.00396729,-0.00640869,0.0234985,-0.0253296,0.071106,0.06073
86,4,0.0244141,-0.022583,0.0326538,0.0317383,0.0485229,0.00396729,0.0244141,0.0158691,0.00610352,0.0292969,-0.0286865,0.0512695,0.032959
87,0,0.0250244,0.0234985,0.050354,0.0180054,0.0253296,0.0344849,0.0283813,0.0012207,0.0234985,0.0350952,-0.0286865,-0.0308228,0.0363159
87,1,0.0183105,0.0256348,0.00640869,0.0271606,-0.00183105,0.012207,0.0247192,0.0726318,0.0268555,0.0305176,-0.0219727,0.0152588,0.0430298
87,2,0.0265503,0.0320435,0.0695801,0.015564,-0.0308228,0.0332642,0.0195312,0.00152588,0.0256348,0.0372314,-0.0280762,0.00671387,-0.0164795
87,3,0.0170898,0.0271606,0.0311279,0.0305176,-0.0238037,0.0265503,0.0302124,0.0262451,0.0100708,0.0146484,-0.0183105,0.027771,0.0418091
87,4,0.0256348,0.0390625,0.000305176,0.027771,0.00335693,0.022583,0.0363159,0.0268555,0.0286865,0.0363159,-0.0259399,0.0201416,0.0344849
88,0,0.0158691,0.0320435,0.0192261,0.0271606,0.03479,0.0234985,0.0308228,0.0512695,0.0210571,0.0299072,-0.0186157,0.032959,0.0265503
88,1,0.0268555,0.0231934,0.0259399,0.0430298,0.0292969,0.022583,0.00366211,0.0906372,0.0250244,0.017395,-0.0708008,0.0140381,0.00274658
88,2,0.0241089,0.0180054,0.0366211,0.0231934,0.0372314,0.0335693,0.0375366,0.0320435,-0.000915527,0.00793457,-0.017395,0.0430298,0.0158691
88,3,0.0238037,0.0289917,0.0210571,0.0317383,0.0494385,0.0146484,0.0262451,0.0244141,0.0128174,0.015564,-0.0158691,0.0143433,0.0247192
88,4,0.0170898,0.0619507,0.0192261,0.0350952,0.0543213,0.0180054,0.0332642,-0.022583,0.0146484,0.0152588,-0.0219727,0.0314331,0.0100708
89,0,0.0292969,0.0204468,-0.0268555,0.039978,0.0558472,0.03479,0.0424194,0.0210571,0.0192261,0.010376,-0.010376,0.00793457,0.0253296
89,1,0.0268555,0.0238037,0.0305176,0.0393677,0.0570679,0.0369263,0.0363159,0.00549316,0.0100708,-0.00305176,-0.00305176,0.000915527,0.00915527
89,2,0.0210571,0.0119019,-0.0302124,0.0393677,0.071106,0.0469971,0.0338745,0.0323486,0.020752,0.015564,-0.0180054,0.0177002,0.00549316
89,3,0.0204468,0.0244141,0.0405884,0.0390625,0.0546265,0.0473022,0.0234985,0.0195312,-0.0189209,0.0125122,-0.0228882,-0.0231934,0.0112915
89,4,0.0192261,-0.00396729,0.0186157,0.03479,0.0579834,0.0268555,0.0268555,0.0338745,0.015564,0.00457764,-0.0302124,0.0183105,0.020752
90,0,-0.00335693,0.022583,0.0143433,0.0186157,0.0469971,0.0326538,0.0228882,0.0341797,0.0131226,0.0469971,-0.0250244,0.00671387,0.0195312
90,1,0.0152588,0.0210571,0.0234985,0.0372314,0.050354,0.0540161,0.012207,0.0198364,0.0213623,0.00549316,-0.0137329,-0.0683594,0.00793457
90,2,0.0396729,0.00457764,0.0146484,0.0488281,0.039978,0.0250244,0.0564575,0.0274658,0.020752,0.0332642,-0.0540161,0.012207,-0.039978
90,3,0.0213623,0.0222778,0.0143433,0.0335693,0.022583,0.0372314,0.0256348,0.0143433,0.0149536,0.0341797,-0.0576782,0.0210571,0.0115967
90,4,0.039978,0.0265503,0.0119019,0.0274658,0.0271606,0.0305176,0.0372314,0.027771,0.0366211,0.0186157,-0.0244141,-0.00946045,0.0146484
91,0,0.0222778,0.0128174,0.012207,0.010376,-0.0216675,0.0408936,0.0405884,0.0332642,0.0210571,0.0125122,-0.0244141,0.0180054,0.0274658
91,1,0.00610352,0.00274658,0.0338745,0.0292969,0.0323486,0.0332642,0.0262451,0.0714111,0.012207,0.0210571,-0.0183105,0.012207,0.0146484
91,2,0.0567627,0.0247192,0.0167847,0.0137329,0.0402832,0.0283813,0.0436401,0.0323486,0.0210571,0.0216675,-0.0186157,0.00732422,0.0195312
91,3,0.0445557,0.020752,-0.0100708,0.0415039,0.0476074,-0.0112915,0.0338745,0.00701904,0.0183105,0.0143433,-0.0177002,0.0112915,0.0286865
91,4,0.017395,0.00640869,0.0268555,0.0241089,0.0289917,0.0189209,0.0540161,0.0302124,0.0213623,-0.038147,-0.0158691,0.0234985,0.0558472
92,0,0.0115967,0.0256348,-0.0088501,0.0259399,0.0308228,0.0216675,0.0454712,0.0198364,0.0271606,0.00762939,-0.0259399,0.0537109,0.0390625
92,1,0.0527954,0.0210571,0.0189209,0.0521851,0.0250244,0.00793457,0.0115967,0.00213623,0.0213623,0.0268555,-0.020752,0.0164795,0.0332642
92,2,0.0143433,0.017395,0.00274658,0.0332642,0.0192261,0.0308228,0.0146484,0.0109863,0.020752,0.00946045,-0.0137329,0.0183105,0.0479126
92,3,0.022583,0.065918,0.027771,0.0201416,0.00549316,0.0463867,0.0311279,0.00793457,0.022583,0.00701904,-0.0201416,0.0161743,0.0311279
92,4,-0.00488281,0.0170898,0.0320435,0.00366211,0.0238037,0.0238037,0.0308228,0.0149536,-0.0201416,0.0204468,-0.0134277,0.0640869,0.039978
93,0,0.0244141,0.0177002,0.0128174,0.0271606,0.0180054,0.0170898,0.0231934,0.0149536,0.015564,0.0149536,-0.0170898,0.00854492,0.0189209
93,1,0.00518799,0.0308228,0.0177002,0.0177002,0.0152588,-0.0134277,0.0344849,0.0320435,0.0714111,0.000610352,-0.0210571,0.00762939,0.0109863
93,2,0.0247192,0.00579834,-0.0292969,0.0326538,0.0350952,0.0476074,0.0198364,0.0238037,0.0210571,0.0128174,-0.0262451,-0.0140381,0.0283813
93,3,0.00946045,0.00427246,0.017395,0.00976562,0.0375366,0.0152588,0.0369263,0.0320435,0.0219727,-0.00366211,-0.0143433,0.000915527,-0.00549316
93,4,0.0088501,-0.0231934,0.0180054,0.0250244,-0.010376,0.0390625,0.0247192,0.0323486,0.022583,0.0088501,-0.0213623,0.00976562,0.0012207
94,0,-0.00427246,0.0198364,0.0317383,0.012207,0.0344849,0.0344849,0.0305176,0.0799561,0.0219727,0.0195312,-0.0186157,0.00579834,0.00610352
94,1,-0.0335693,0.0112915,0.0262451,0.00396729,0.0314331,0.0631714,0.0247192,0.0390625,0.0164795,0.0189209,-0.0259399,0.0143433,0.0112915
94,2,0.0149536,0.0775146,0.0189209,0.0253296,-0.0180054,0.0442505,0.012207,0.0244141,0.0195312,0.0247192,-0.010376,0.010376,0.000305176
94,3,0.015564,0.0238037,0.0137329,0.0247192,0.0292969,-0.0134277,0.00213623,0.0500488,0.0292969,0.0112915,-0.0140381,0.0616455,0.00701904
94,4,0.0134277,0.0137329,0.0265503,0.0302124,0.017395,0.0341797,-0.0292969,0.0436401,-0.00152588,0.0204468,-0.0335693,0.0161743,0.00518799
95,0,0.0189209,0.0231934,0.0219727,0.0332642,0.010376,0.0350952,0.0299072,0.0686646,0.0244141,0.0195312,0.0326538,0.0299072,0.00396729
95,1,0.00396729,0.0204468,0.0216675,0.0109863,0.0311279,0.0341797,0.0247192,0.0372314,0.0213623,0.00549316,-0.0189209,0.0115967,0.00488281
95,2,0.0469971,0.0189209,0.0170898,0.0558472,0.0256348,0.0738525,0.0292969,0.0390625,0.0314331,0.0317383,-0.0387573,0.0283813,0.00518799
95,3,0.0177002,0.0241089,0.0296021,0.0241089,0.0335693,0.0292969,0.0344849,0.0311279,0.0143433,0.0189209,0.00274658,0.0140381,0.0308228
95,4,0.022583,0.0296021,0.0109863,0.0222778,0.0204468,0.0537109,0.0283813,0.0411987,0.0704956,-0.00274658,-0.0100708,0.0222778,0.00579834
96,0,0.0164795,0.0119019,-0.0137329,0.0192261,0.0210571,0.0363159,0.0259399,0.027771,0.0216675,-0.0100708,-0.00762939,0.0161743,0.0265503
96,1,0.0106812,0.0280762,0.0177002,0.0265503,-0.0238037,0.0314331,0.032959,-0.020752,0.0280762,0.0137329,-0.0137329,0.020752,0.0109863
96,2,0.0241089,0.0231934,0.0302124,0.0183105,0.0317383,0.0317383,0.0457764,0.0299072,0.0234985,0.00732422,-0.0250244,0.0332642,0.0189209
96,3,0.0167847,0.0189209,0.0195312,0.0210571,0.0408936,0.0372314,0.0643921,0.0262451,0,0.00793457,-0.0213623,0.0125122,0.00488281
96,4,0.0158691,0.0198364,0.022583,0.0247192,0.0494385,0.0332642,0.0274658,0.00671387,0.0238037,0.00335693,0.0177002,0.0286865,0.0189209
97,0,0.0265503,-0.0415039,0.0180054,0.0192261,0.0820923,0.020752,0.0198364,-0.0332642,0.0234985,-0.0161743,-0.0265503,0.0250244,0.0442505
97,1,0.0140381,0.012207,0.0112915,0.0360107,0.0308228,0.0238037,0.00732422,0.0283813,0.0408936,0.00976562,-0.0140381,0.00427246,0.0183105
97,2,0.0140381,0.0500488,0.0170898,0.0198364,0.0378418,0.0363159,0.0320435,0.0183105,0.0396729,0.00396729,-0.000915527,0.0152588,0.00732422
97,3,0.012207,0.00488281,0.0143433,0.010376,0.0411987,0.0769043,0.0335693,0.0338745,0.0317383,0.0158691,-0.0186157,0.010376,-0.0137329
97,4,0.0234985,-0.0234985,0.0280762,0.0378418,0.0662231,0.0201416,0.0308228,0.0564575,0.0238037,0.00793457,-0.0186157,0.0350952,0.0308228
98,0,-0.00152588,0.0228882,0.00427246,0.0631714,0.0305176,0.0109863,0.0350952,0.0314331,0.0387573,0.00823975,-0.0714111,0.0192261,0.0183105
98,1,0.0445557,0.00701904,0.00946045,0.00854492,0.0143433,0.0250244,0.0210571,0.0289917,0.0274658,0.0518799,-0.0201416,0.0219727,0.0253296
98,2,0.0296021,0.0143433,0.0115967,-0.00152588,0.0350952,0.0286865,-0.0134277,0.0418091,0.0234985,0.0234985,-0.0259399,-0.0012207,0.0167847
98,3,0.0134277,0.0189209,0.0262451,0.0219727,0.0167847,0.0244141,0.0350952,0.0177002,0.0164795,0.0201416,0.00244141,0.0128174,0.0152588
98,4,0.0213623,0.0393677,0.0228882,-0.00640869,0.0311279,0.0387573,0.0366211,0.00762939,0.0369263,0.0543213,-0.0262451,0.0302124,-0.000915527
99,0,0.0158691,0.0183105,-0.000915527,0.0198364,0.012207,0.0210571,-0.00244141,0.0341797,0.0479126,0.00946045,-0.0143433,0.022583,0.0280762
99,1,0.0494385,0.0143433,0.0180054,0.012207,0.00671387,0.0424194,0.0231934,0.0112915,0.0308228,0.0396729,-0.0265503,0.0299072,0.0198364
99,2,0.0201416,0.0253296,0.0286865,0.00854492,-0.0314331,0.0241089,0.09552,0.0518799,0.0222778,0.0100708,-0.0192261,0.0213623,0.0128174
99,3,0.00457764,0.0262451,0.03479,0.0314331,-0.00671387,0.0320435,0.0238037,0.0271606,0.0302124,0.0415039,-0.0238037,0.00946045,0.0143433
99,4,0.0299072,0.00488281,0.0228882,0.0131226,0.0125122,0.0723267,0.0390625,0.0598145,0.0561523,0.0378418,-0.0247192,-0.0106812,0.0271606
100,0,0.0164795,0.0402832,0.0012207,0.017395,0.0115967,0.0164795,0.0158691,0.0314331,0.0323486,0.0192261,-0.0158691,0.0204468,0.012207
100,1,0.0192261,0.0210571,-0.000305176,0.0198364,0.0128174,-0.0161743,0.0314331,0.0238037,0.0323486,0.0228882,-0.0210571,0.0354004,0.0146484
100,2,-0.0479126,0.022583,0.00640869,0.0601196,0.00915527,0.0186157,-0.0146484,0.010376,0.0259399,-0.0164795,0.0317383,0.00640869,0.0268555
100,3,0.0292969,0.0308228,0.0418091,0.0234985,0.0509644,0.0473022,0.0308228,0.0250244,0.032959,0.0296021,-0.0265503,-0.0158691,0.0238037
100,4,0.0390625,0.0250244,0.0436401,0.0296021,0.0521851,0.0238037,0.0320435,0.0296021,0.0100708,0.0283813,-0.0262451,0.0140381,-0.0228882
101,0,0.0582886,-0.000915527,0.039978,0.0186157,0.0411987,0.0274658,0.0323486,0.0372314,0.0262451,0.0387573,-0.0216675,0.0234985,0.0250244
101,1,0.0259399,0.0161743,0.0411987,0.0241089,0.0320435,0.0161743,0.0317383,0.0463867,0.0308228,0.03479,-0.0558472,0.0216675,0.0210571
101,2,0.0195312,0.00213623,0.0238037,0.0201416,0.0189209,0.0292969,0.0302124,0.032959,-0.0158691,0.0363159,-0.0164795,0.0726318,0.03479
101,3,0.0308228,0.0268555,0.00244141,0.015564,0.057373,0.0170898,0.0320435,-0.0119019,0.0354004,0.0366211,-0.0286865,0.0311279,0.0219727
101,4,0.0115967,0.0177002,-0.0323486,0.0216675,0.0128174,0.00915527,0.0357056,0.0250244,-0.00518799,0.0115967,-0.0234985,0.0210571,0.0195312
102,0,0.0637817,0.0216675,-0.00823975,0.0112915,0.0192261,-0.00457764,0.0354004,0.00915527,0.00366211,0.0344849,-0.0234985,0.0448608,0.0335693
102,1,0.0219727,0.0131226,0.010376,0.0216675,0.0454712,0.0112915,0.043335,0.0158691,0.0344849,0.0415039,-0.0250244,0.0256348,0.0262451
102,2,0.0140381,0.0222778,0.00732422,0.0311279,0.0338745,0.0231934,0.0961304,0.0335693,0.0320435,-0.0280762,-0.0213623,0.00854492,0.0195312
102,3,0.00671387,0.00823975,0.00457764,0.0292969,0.0469971,0.0430298,0.00976562,0.0305176,0.03479,-0.00518799,-0.0332642,0.0109863,0.0311279
102,4,0.0137329,0.0463867,0.0164795,-0.0088501,0.0247192,0.015564,-0.0088501,0.0167847,0.032959,0.0262451,-0.0280762,0.00396729,0.0234985
103,0,0.0408936,0.0167847,0.0161743,0.0125122,0.0323486,0.0219727,0.0460815,0.0219727,0.032959,0.010376,-0.0216675,0.0112915,0.0357056
103,1,0.00427246,0.0125122,0.0100708,0.0180054,0.0469971,0.0567627,0.0418091,0.0296021,-0.0106812,0.00152588,-0.0305176,0.0183105,0.0402832
103,2,0.0506592,0.0125122,0.00854492,0.00946045,0.0500488,0.0238037,0.0442505,0.0262451,0.0262451,0.0280762,-0.0112915,0.043335,0.0088501
103,3,0.00610352,0.0125122,0.00579834,0.0183105,0.0537109,0.0344849,0.039978,0.0161743,0.0408936,0.0161743,-0.0180054,0.020752,0.0204468
103,4,0.0332642,0.012207,0.0189209,0.00701904,0.0436401,0.0411987,0.00793457,0.0338745,0.0161743,0.0250244,-0.0296021,0.0262451,0.0314331
104,0,0.0140381,0.00335693,0.0137329,0.0195312,0.0418091,0.0509644,0.0256348,0.0378418,0.00488281,0.038147,-0.0259399,0.00396729,0.010376
104,1,0.0183105,-0.00701904,0.00762939,0.0210571,0.0500488,0.0234985,0.022583,0.0442505,0.0405884,0.0338745,-0.0308228,0.0177002,-0.00305176
104,2,0.0265503,-0.00396729,0.0201416,0.0189209,0.0100708,0.039978,0.00396729,0.0479126,0.0292969,0.032959,-0.0256348,0.0262451,-0.00335693
104,3,0.0204468,0.0256348,0.00854492,0.0228882,0.0137329,0.0570679,0.00518799,0.0415039,0.0137329,0.0195312,-0.0314331,0.00305176,-0.00488281
104,4,0.0335693,0.0469971,0.0213623,0.0244141,-0.0665283,0.0393677,0.0198364,-0.0088501,0.0241089,0.0204468,-0.0296021,0.0332642,0.00946045
105,0,0.0323486,0.0265503,-0.0363159,0.0231934,0.0109863,0.0204468,0.0128174,0.0396729,0.0299072,0.0201416,-0.0283813,0.0299072,0.00183105
105,1,0.0134277,0.0164795,0.0350952,0.00488281,0.0137329,0.0259399,0.00396729,0.0323486,0.0259399,0.0222778,-0.0189209,0.0183105,-0.0109863
105,2,0.00152588,0.0247192,0.0152588,0.0314331,0.0115967,0.0244141,0.0302124,0.0308228,0.027771,0.0164795,-0.0109863,0.0335693,0.0143433
105,3,0.0274658,0.0198364,0.0268555,0.0137329,-0.0128174,0.00854492,0.0198364,0.0576782,0.0311279,0.017395,-0.0265503,0.0241089,0.0296021
105,4,0.020752,0.0109863,0.0393677,0.0234985,-0.0100708,0.00701904,0.0335693,0.0280762,0.0296021,0.0222778,0.00518799,0.0231934,-0.00854492
106,0,0.017395,-0.00762939,0.0146484,0.0234985,-0.000305176,0.0186157,0.0231934,0.0183105,0.032959,0.00793457,-0.027771,0.0543213,0.020752
106,1,0.0436401,0.0271606,0.0183105,0.0259399,0.000610352,0.00335693,0.0286865,0.0177002,0.0210571,0.0390625,-0.0402832,0.0201416,-0.0408936
106,2,0.0262451,0.0186157,0.0177002,0.010376,0.00915527,0.00335693,0.0375366,0.0274658,0.0283813,0.0259399,-0.0363159,0.0259399,0.0201416
106,3,0.0238037,0.00854492,0.0125122,0.00457764,0.012207,0.0109863,0.0402832,0.0262451,0.017395,0.0299072,-0.0305176,0.00366211,0.0308228
106,4,-0.00396729,0.0140381,0.017395,0.000915527,-0.000305176,0.0128174,0.027771,0.0323486,0.0234985,0.00244141,-0.0326538,0.0198364,0.0564575
107,0,0.0167847,0.0247192,0.0274658,0.0195312,0.0131226,0.00671387,0.0344849,0.0238037,0.0387573,0.0112915,-0.0375366,0.0161743,0.0332642
107,1,0.0219727,0.0195312,0.0183105,0.00488281,0.00213623,0.0241089,0.0238037,0.0210571,0.0296021,0.0115967,-0.0305176,0.03479,0.0289917
107,2,0.0170898,0.0256348,0.00640869,0.0164795,0.00701904,0.0366211,0.0241089,0.0256348,0.0167847,0.0177002,-0.0244141,0.0387573,0.00671387
107,3,0.0350952,0.0149536,0.0274658,0.0128174,0.00518799,0.0311279,0.017395,0.039978,0.0323486,0.0302124,-0.0491333,0.0189209,0.00701904
107,4,0.0234985,0.0146484,0.0244141,0.0183105,0.0183105,0.0238037,0.0112915,0.039978,-0.045166,0.0244141,-0.0366211,-0.027771,0.00823975
108,0,0.0158691,0.0189209,0.0161743,0.0186157,0,0.0247192,0.0210571,0.0341797,0.0396729,0.017395,-0.0411987,0.0341797,0.00488281
108,1,0.0262451,0.0344849,0.0228882,0.0198364,0.0161743,0.0265503,0.0244141,0.0247192,0.03479,0.0286865,-0.0308228,0.027771,0.00244141
108,2,0.022583,0.00823975,0.0256348,0.0195312,0.0186157,0.0372314,0.0250244,0.0720215,0.00793457,0.0183105,-0.0741577,0.0302124,0.00152588
108,3,0.0411987,0.0112915,0.022583,0.00915527,0.0167847,0.0289917,0.0201416,0.00274658,0.0234985,0.0186157,-0.0360107,0.0308228,0.0112915
108,4,0.0323486,0.0125122,0.00976562,0.0149536,0.0119019,0.0375366,0.0164795,0.0335693,0.0247192,0.0158691,-0.0384521,0.038147,0.038147
109,0,0.0384521,0.0012207,0.0228882,0.0201416,0.0256348,0.0268555,0.0289917,0.0204468,0.0131226,0.0222778,-0.00915527,0.0463867,0.0088501
109,1,0.0228882,0.0289917,0.000610352,0.0344849,0.00427246,-0.0192261,0.0177002,0.0286865,0.00305176,0.0134277,-0.0341797,0.0350952,0.0204468
109,2,0.0271606,0.0177002,-0.00640869,0.020752,-0.00183105,0.0326538,0.0302124,0.0296021,0.0384521,0.0814819,-0.0408936,0.0283813,-0.0292969
109,3,0.0253296,0.0106812,0.0302124,0.0192261,0.012207,-0.00732422,0.0131226,0.0357056,0.0622559,0.0170898,-0.0479126,0.0271606,-0.00854492
109,4,0.0363159,0.032959,0.0280762,0.0463867,0.0180054,0.0262451,0.00305176,0.0311279,0.00366211,0.00640869,0.00579834,0.0259399,0.00274658
110,0,0.062561,0.0268555,0.0152588,-0.0360107,0.0204468,0.0469971,0.0143433,0.0405884,0.0473022,0.0119019,-0.0393677,0.0366211,0.0100708
110,1,0.0195312,0.0268555,0.0180054,0.0164795,0.0418091,0.0222778,0.0280762,0.0393677,0.0198364,0.00274658,-0.0485229,0.0201416,0.00213623
110,2,0.0320435,0.0167847,0.0753784,0.0131226,0.000915527,-0.0146484,0.0378418,0.0149536,0.0186157,0.0372314,-0.0466919,0.0283813,0.000305176
110,3,0.0247192,0.0210571,0.0146484,0.0228882,0.0408936,0.0216675,0.0183105,0.0119019,0.0311279,0.0128174,-0.0213623,0.0271606,0.0253296
110,4,0.0247192,0.0137329,0.0326538,0.00335693,-0.00457764,0.0830078,0.0283813,0.0228882,-0.0314331,0.0177002,-0.0192261,0.0369263,0.0308228
111,0,0.0289917,0.0167847,-0.0317383,0.0109863,0.0112915,0.00732422,0.0186157,0.0216675,0.0219727,-0.000305176,-0.0326538,0.0216675,0.0387573
111,1,0.0369263,0.020752,0.0149536,0.0112915,0.00946045,0.0765991,0.032959,0.00640869,0.0521851,0.0140381,-0.038147,-0.0302124,0.0354004
111,2,0.0180054,0.0177002,0.0341797,0.0134277,0.0149536,0.0317383,0.0479126,0.0134277,0.0405884,0.0219727,-0.0238037,0.0424194,0.0378418
111,3,0.0350952,0.0317383,0.017395,0.00244141,-0.017395,0.0195312,0.03479,0.0338745,0.00457764,0.00457764,-0.0302124,0.0314331,0.0488281
111,4,0.0308228,0.0292969,0.0360107,-0.0219727,-0.000610352,0.039978,-0.00396729,0.022583,0.0231934,0.0210571,-0.0222778,0.0241089,0.0393677
112,0,0.038147,-0.0286865,0.0250244,0.00396729,0.0146484,-0.00213623,0.0152588,0.0286865,0.0161743,0.0219727,-0.0430298,0.0149536,0.0320435
112,1,0.0469971,0.0332642,0.017395,0.0344849,0.0128174,0.020752,0.0341797,0.0189209,0.0128174,0.00854492,-0.0421143,0.00946045,0.0411987
112,2,-0.00396729,0.0253296,0.0195312,-0.0357056,0.00305176,0.00671387,0.0350952,0.0192261,0.0219727,0.0125122,-0.0366211,0.0238037,0.0421143
112,3,0.0518799,0.0219727,0.0299072,0.0143433,0.0167847,0.015564,0.0372314,0.0131226,0.0161743,0.0543213,-0.0344849,0.0222778,0.043335
112,4,-0.00427246,0.0283813,0.032959,0.0210571,0.0228882,0.0109863,0.0274658,0.010376,0.0274658,0.0216675,-0.0320435,0.00793457,0.0378418
113,0,0.020752,0.0427246,0.0256348,0.0213623,0.0231934,0.0137329,0.0234985,0.0164795,0.0180054,0.0164795,-0.0219727,0.022583,0.0460815
113,1,0.0357056,0.0387573,0.0244141,0.0268555,0.0189209,0.0262451,0.0234985,0.0302124,0.017395,0.0375366,-0.0213623,0.00976562,-0.0219727
113,2,0.0314331,0.0335693,0.0195312,0.0143433,0.0137329,-0.000305176,0.0286865,0.0149536,0.0238037,0.0372314,-0.0271606,0.0671387,0.0350952
113,3,0.0140381,0.0317383,0.057373,-0.0219727,0.0164795,0.000610352,0.0244141,0.00701904,0.0222778,0.0463867,-0.0396729,0.0344849,0.0314331
113,4,0.0292969,0.0714111,0.015564,0.0170898,0.027771,0.0292969,0.0372314,0.0289917,0.0338745,0.032959,-0.0494385,0.0292969,0.039978
114,0,0.0524902,0.0234985,0.0152588,0.0180054,0.0323486,0.0088501,0.0128174,0.00915527,0.010376,0.0592041,-0.0531006,0.0317383,0.0436401
114,1,0.0201416,0.0283813,0.012207,0.0250244,0.00701904,0.00274658,0.0195312,0.0198364,0.0302124,0.0466919,-0.0610352,0.0344849,0.0445557
114,2,0.0299072,0.0128174,0.0158691,0.0186157,0.0140381,0.00793457,0.0183105,0.0817871,0.0442505,0.0521851,-0.0137329,0.0228882,0.0439453
114,3,0.0238037,0.0146484,0.0354004,0.0238037,0.0201416,0.0186157,0.020752,0.0292969,0.0131226,0.0543213,-0.0289917,0.0259399,0.0393677
114,4,0.0100708,0.0183105,0.0375366,0.0213623,0.0152588,0.0161743,0.0360107,0.00610352,0.0335693,0.000610352,0.00976562,0.0372314,-0.0152588
115,0,0.0271606,0.0180054,0.0158691,0.0271606,0.0265503,0.0012207,0.0143433,0.0244141,0.0314331,0.0445557,-0.03479,0.00183105,0.0366211
115,1,0.0238037,0.0311279,0.0265503,0.0152588,0.00488281,0.0405884,0.0250244,0.0283813,0.0350952,0.0506592,-0.0216675,0.0274658,0.020752
115,2,0.0286865,0.0134277,0.0326538,0.0189209,0.0137329,0.00793457,0.0299072,0.0213623,0.0466919,0.0518799,-0.0305176,0.0244141,0.000915527
115,3,0.0402832,0.039978,0.0280762,0.0189209,0.0204468,0.0177002,0.0222778,0.0296021,0.0253296,0.0515747,-0.0332642,0.0210571,0.00976562
115,4,0.00274658,0.0372314,0.0244141,0.0167847,0.0125122,0.0115967,0.0170898,0.0201416,0.0332642,0.0482178,-0.0424194,0.0305176,0.0149536
116,0,0.0460815,0.0283813,0.00946045,0.022583,0.0158691,0.0271606,-0.0317383,0.0366211,0.0189209,0.00732422,-0.0219727,0.0497437,-0.00244141
116,1,0.0421143,0.0210571,0.0210571,0.0253296,-0.00488281,0.0210571,0.00854492,0.00213623,0.0167847,0.0543213,-0.0210571,0.0152588,0.0131226
116,2,0.0408936,0.0280762,0.0283813,0.0393677,0.0177002,-0.0338745,0.012207,0.0259399,0.0234985,0.0518799,-0.0198364,0.0500488,0.0201416
116,3,0.0466919,0.032959,0.00732422,0.0112915,0.0143433,0.0219727,0.00671387,0.0332642,0.0332642,0.0323486,-0.0372314,0.0286865,-0.0497437
116,4,0.0820923,0.0326538,0.0265503,0.0411987,0.0274658,0.0253296,0.0134277,0.00244141,0.0244141,0.0527954,-0.0183105,0.0204468,0.0177002
117,0,0.0161743,0.0393677,0.0222778,0.0299072,0.00427246,0.0158691,-0.0592041,0.0335693,0.0268555,0.0204468,-0.0274658,0.0250244,0.0170898
117,1,0.0314331,0.0204468,0.0164795,0.0305176,0.0271606,0.0216675,0.00213623,0.0323486,0.022583,0.0219727,-0.0244141,0.0152588,-0.0378418
117,2,0.0286865,0.0323486,-0.0308228,0.0320435,0.0146484,-0.0296021,0.0012207,0.0280762,0.0378418,0.0585938,-0.0369263,0.0357056,-0.000915527
117,3,0.0292969,0.0488281,0.0274658,0.0161743,-0.0186157,0.0137329,0.015564,0.0149536,0.0280762,0.0552368,-0.0262451,0.038147,-0.00427246
117,4,0.0360107,0.0292969,0.0198364,0.0357056,0.017395,0.00579834,0.0131226,0.0271606,-0.03479,0.0405884,-0.0265503,0.0543213,0.0283813
118,0,0.0244141,0.0314331,0.0296021,0.0357056,0.0222778,0.00701904,0.0088501,0.017395,0.0238037,0.0656128,-0.0283813,0.0311279,0.0268555
118,1,0.0201416,0.0265503,0.093689,0.0238037,0.0210571,-0.0421143,0.0256348,0.0152588,-0.0012207,0.0448608,-0.0326538,0.0720215,0.00732422
118,2,0.0271606,0.0244141,0.0234985,0.0183105,0.00671387,0.0268555,0.0140381,0.0216675,0.0177002,0.0509644,-0.0256348,0.032959,-0.010376
118,3,-0.0271606,0.0308228,0.0180054,0.0360107,0.0302124,0.00213623,0.0286865,0.0012207,0.0216675,0.0219727,-0.0274658,0.0228882,0.0466919
118,4,0.03479,0.0112915,0.0234985,0.0213623,0.0299072,0.00671387,0.0323486,0.0143433,0.0286865,0.0231934,-0.0219727,0.0283813,0.0650024
119,0,0.0378418,0.0289917,0.0506592,0.0250244,0.0164795,0.00732422,0.0183105,0.00640869,0.0323486,0.0271606,-0.0320435,0.0201416,0.0527954
119,1,0.0198364,0.03479,0.0201416,0.00793457,0.0772095,-0.000305176,0.00610352,-0.0350952,0.0390625,0.00244141,-0.0198364,0.0341797,0.0552368
119,2,0.015564,0.0384521,0.0378418,0.0177002,0.0109863,0.0128174,0.0296021,0.00823975,-0.000610352,0.0241089,-0.0308228,0.0747681,0.0366211
119,3,0.0341797,0.0497437,0.0143433,0.0366211,0.00915527,0.0119019,0.0305176,-0.000915527,0.0125122,0.0216675,-0.0274658,0.00579834,0.0515747
119,4,0.0170898,0.0296021,0.0268555,-0.0152588,0.0170898,0.0158691,-0.0189209,0.0128174,0.0234985,0.0250244,-0.0125122,0.0253296,0.090332
120,0,0.0216675,0.0354004,0.0436401,0.0250244,-0.00366211,-0.0131226,0.0454712,0.0149536,0.0256348,0.0674438,-0.020752,0.0311279,0.0466919
120,1,0.0418091,0.0344849,0.0189209,0.0234985,-0.0170898,-0.00640869,0.0216675,0.0146484,0.0149536,0.000610352,-0.0280762,0.027771,0.0457764
120,2,0.0970459,0.0323486,0.0314331,0.00396729,-0.0244141,-0.00183105,0.0164795,0.0125122,0.0177002,0.0158691,-0.0268555,0.0350952,0.057373
120,3,0.0320435,0.0894165,0.032959,0.0231934,-0.0460815,-0.0106812,0.0201416,-0.015564,0.0088501,0.0088501,-0.0335693,0.0286865,0.0537109
120,4,0.0244141,0.032959,0.0646973,0.0192261,0.0152588,0.0668335,0.0180054,0.0201416,0.0689697,0.0088501,-0.0289917,0.0292969,0.03479
121,0,0.015564,0.0445557,0.0427246,-0.0119019,0.0360107,0.0186157,0.0302124,0.0234985,0.017395,0.00640869,-0.0219727,0.0292969,0.0402832
121,1,0.0222778,0.0283813,0.0445557,0.0280762,0.0369263,0.00610352,0.00701904,0.0158691,0.0323486,-0.00366211,-0.0411987,0.0253296,0.0363159
121,2,0.0387573,0.0350952,0.0592041,0.0335693,0.0354004,-0.0308228,0.00915527,0.0198364,-0.0354004,-0.000915527,-0.0299072,-0.0286865,0.0201416
121,3,0.0445557,0.0320435,0.0393677,0.0241089,0.0424194,0.0292969,-0.00610352,0.0204468,0.0146484,0.012207,-0.0302124,0.0256348,0.0265503
121,4,0.0320435,0.0408936,0.0186157,0.0140381,-0.0012207,0.0164795,0.00793457,0.0219727,0.0460815,-0.00183105,-0.0250244,0.0430298,0.0268555
122,0,0.0476074,-0.00732422,0.0283813,0.0292969,0.0405884,0.0112915,0.00976562,0.0402832,0.0183105,-0.00244141,-0.0204468,0.0311279,0.0134277
122,1,0.0177002,0.0390625,0.0357056,0.0134277,0.0357056,0.0299072,0.0247192,0.0210571,0.00488281,0.00701904,-0.0448608,0.0320435,0.0283813
122,2,0.0244141,0.0424194,0.0311279,0.0234985,0.0418091,0.00152588,0.00152588,0.0170898,0.000915527,-0.00213623,-0.0204468,0.0408936,0.00976562
122,3,0.0396729,0.0308228,-0.0158691,0.0259399,0.0222778,0.0698853,0.000915527,0.0350952,0.0146484,-0.00183105,-0.017395,0.0357056,0.00671387
122,4,0.0396729,0.0405884,0.0286865,0.0424194,0.0192261,0.03479,-0.0350952,0.0228882,0.0137329,0.0109863,-0.03479,0.0360107,-0.00854492
123,0,0.0689697,0.0262451,0.0289917,0.00427246,0.0344849,0.0323486,0.0671387,0.0088501,0.00274658,-0.057373,-0.0234985,0.00793457,0.0411987
123,1,0.0308228,0.0210571,0.0274658,0.0167847,0.0332642,0.0213623,0.0183105,0.00152588,-0.00915527,-0.00701904,-0.00823975,0.0430298,0.0219727
123,2,0.0323486,0.0396729,0.0222778,0.0213623,0.015564,0.0192261,0.0219727,0.015564,0.0106812,0.00549316,-0.0466919,0.0378418,0.0424194
123,3,0.0308228,0.110474,0.0292969,0.0238037,0.00762939,0.0302124,0.0201416,0.00549316,0.0119019,0.00762939,-0.0253296,0.0280762,0.022583
123,4,0.0143433,0.0274658,0.0323486,0.0219727,0.0137329,0.0177002,-0.00518799,0.0195312,0.010376,-0.00915527,-0.0384521,0.0283813,0.0796509
124,0,0.0375366,0.015564,-0.0308228,0.0357056,0.0244141,0.088501,0.010376,0.0192261,0.0497437,0.0112915,-0.0189209,0.0604248,0.0244141
124,1,0.03479,0.0204468,0.0213623,0.0280762,0.0415039,0.020752,0.038147,0.0100708,0.0183105,0.00427246,-0.0189209,0.0265503,0.0436401
124,2,0.0485229,0.0299072,0.0906372,0.0231934,0.0244141,0.0170898,0.0234985,0.00762939,0.0152588,-0.0012207,-0.0241089,0.0311279,0.0302124
124,3,0.020752,0.0262451,0.0439453,0.0250244,0.0164795,0.0241089,0.0268555,0.0192261,0,0.0088501,-0.0210571,0.0308228,-0.0216675
124,4,0.0921631,0.050354,0.0231934,0.0921631,0.0216675,0.0305176,0.0720215,0.0143433,0.0250244,0.022583,-0.0311279,0.0332642,0.020752
125,0,0.0460815,0.0360107,0.0213623,0.0375366,0.0216675,0.0167847,0.0286865,0.0308228,0.0140381,0.0115967,-0.0137329,0.0479126,0.0140381
125,1,0.0247192,0.0299072,0.0512695,0.0213623,0.0204468,0.00823975,-0.0292969,0.0283813,0.00457764,0.0100708,-0.0314331,0.0338745,0.0222778
125,2,0.0405884,0.0158691,0.0250244,0.0326538,0.00488281,-0.0415039,0.0167847,0.0186157,0.00335693,0.00701904,-0.0299072,0.0311279,0.038147
125,3,0.0259399,-0.0234985,0.0326538,0.039978,-0.0341797,0.0219727,0.0231934,-0.0262451,0.00183105,0.00976562,-0.0259399,0.0299072,0.0384521
125,4,0.0201416,0.0341797,0.0289917,0.0320435,0.038147,0.0460815,0.0180054,0.0753784,0,0.0192261,-0.0231934,0.0253296,0.0274658
126,0,0.0314331,0.0424194,0.0259399,0.0326538,0.0183105,0.0201416,0.0137329,0.0250244,0.015564,0.0262451,-0.0238037,0.0161743,0.0296021
126,1,0.038147,0.0357056,0.0286865,0.0125122,0.0234985,0.0216675,0.0256348,-0.0485229,0.0186157,0.010376,-0.0219727,0.0314331,0.0283813
126,2,0.0180054,0.0265503,0.00793457,0.0280762,0.0344849,0.0915527,0.0137329,0.0192261,0.0637817,0.0134277,-0.0320435,-0.0256348,0.00549316
126,3,0.0292969,0.0421143,0.0280762,0.0363159,0.0296021,0.0354004,0.0238037,0.0134277,0.0158691,0.0143433,-0.0250244,0.0265503,0.0219727
126,4,0.0296021,0.0283813,0.0204468,0.0265503,0.0317383,0.022583,0.0137329,0.0149536,0.0695801,0.0271606,-0.0366211,0.00579834,0.0292969
127,0,0.03479,0.0323486,0.0253296,0.0268555,0.0296021,0.0271606,0.0125122,0.0201416,0.0115967,-0.00366211,-0.0369263,0.0286865,0.050354
127,1,0.0460815,0.0384521,0.0622559,0.0234985,0.0369263,-0.0012207,0.00610352,0.00427246,0.0109863,0.0302124,-0.0262451,0.0180054,0.0421143
127,2,0.0253296,-0.00396729,0.0354004,0.0302124,0.0494385,0.00213623,0.0186157,0.0338745,0.015564,0.0137329,-0.0250244,0.03479,0.0350952
127,3,0.050354,0.0302124,0.0421143,-0.00946045,0.0350952,0.00518799,0.0570679,0.0100708,0.0119019,0.0289917,-0.0280762,0.0213623,0.0567627
127,4,0.0195312,0.0262451,0.0317383,0.0311279,0.0491333,0.0195312,0.0186157,0.0256348,0.0158691,0.0311279,-0.022583,0.0289917,0.0424194
128,0,0.0177002,0.0296021,0.0479126,0.0357056,0.0271606,0.0189209,0.0238037,0.0106812,0.00671387,0.0219727,-0.0204468,0.0228882,0.0384521
128,1,0.027771,0.0430298,0.0405884,0.0350952,0.0527954,0.0241089,0.0308228,0.0299072,0.0195312,0.0247192,-0.0186157,0.0253296,0.0561523
128,2,0.0140381,0.0357056,0.0192261,0.0234985,0.022583,-0.00946045,0.0418091,0.0262451,0.0228882,0.0192261,-0.0271606,0.055542,0.0570679
128,3,0.0234985,0.0164795,0.0296021,0.0314331,0.0335693,0.0534058,0.0317383,0.012207,-0.020752,0.0390625,-0.0219727,0.00305176,0.0494385
128,4,0.00305176,0.0366211,0.00854492,0.0183105,0.0216675,0.027771,0.045166,0.0222778,0.0479126,0.00976562,-0.0253296,0.0238037,0.0448608
129,0,0.0167847,0.0296021,-0.00488281,0.0125122,0.03479,-0.0167847,0.0482178,0.00549316,-0.0189209,0.0140381,-0.0274658,-0.027771,0.0531006
129,1,0.0292969,0.0262451,0.00976562,0.0244141,0.03479,0.010376,0.0314331,0.0769043,0.0164795,0.0244141,-0.0283813,0.00823975,0.0619507
129,2,0.0256348,0.0186157,0.0308228,0.0109863,0.0256348,0.0234985,0.0372314,0.0115967,0.00518799,0.0732422,-0.0289917,0.0320435,0.0540161
129,3,0.0280762,0.00366211,0.0256348,0.0177002,0.0430298,0.0274658,0.0213623,0.012207,0.022583,0.0192261,-0.0326538,0.0241089,0.0610352
129,4,0.0259399,0.0317383,0.0527954,0.0198364,0.0427246,0.00762939,0.0189209,0.0146484,0.0180054,0.0256348,-0.0262451,0.0393677,0.038147
130,0,0.0457764,0.0396729,0.0280762,0.0231934,0.0222778,0.0335693,0.0231934,0.0180054,0.00671387,0.0234985,-0.0198364,-0.00396729,0.0344849
130,1,-0.0430298,0.0289917,0.0375366,-0.0143433,0.0363159,0.0292969,0.0198364,0.0292969,0.0146484,0.0253296,-0.0280762,0.00854492,0.0454712
130,2,0.0292969,0.0192261,0.0271606,0.0360107,0.0234985,0.0289917,0.0161743,0.0170898,0.0112915,0.0311279,-0.0140381,0.0286865,0.0338745
130,3,0.0204468,0.0674438,0.0201416,0.0274658,0.0128174,0.0088501,0.015564,-0.0387573,0.0106812,0.0201416,-0.0268555,0.0119019,0.0283813
130,4,0.0131226,0.0183105,0.0253296,0.0323486,0.043335,0.0302124,-0.0335693,-0.00488281,0.0253296,0.00427246,-0.0262451,0.0280762,0.0341797
131,0,0.0222778,0.0634766,0.00549316,0.0238037,0.0393677,0.0369263,0.0213623,0.0213623,0.00549316,0.0314331,-0.0189209,0.0378418,-0.0119019
131,1,0.0112915,0.0259399,0.0854492,0.0570679,0.0292969,-0.0271606,0.0180054,0.0164795,0.0106812,0.0335693,-0.00915527,0.0302124,0.0109863
131,2,0.0253296,0.0396729,0.0259399,0.0280762,0.0366211,0.017395,0.0238037,0.0131226,0.020752,0.0256348,-0.000915527,0.0332642,0.0128174
131,3,0.0344849,0.043335,0.0354004,-0.0323486,0.0280762,0.0360107,0.00915527,0.0326538,0.012207,0.0283813,-0.0170898,0.0195312,-0.00335693
131,4,0.0158691,0.0445557,0.0256348,0.0253296,0.0314331,0.0436401,0.022583,0.0231934,0.0201416,0.00244141,-0.0100708,0.00518799,0.0314331
132,0,-0.0250244,0.0271606,0.0302124,0.0311279,0.0396729,0.0363159,0.00671387,0.0286865,0.00640869,0.00579834,-0.0180054,0.0213623,0.00549316
132,1,0.0204468,0.0213623,0.0244141,0.0204468,0.0283813,0.0354004,0.0140381,0.027771,0.022583,0.00946045,-0.0131226,0.0335693,-0.00762939
132,2,0.0180054,0.00610352,0.0289917,0.0265503,0.0289917,0.0311279,0.0186157,0.0396729,-0.0149536,0.00366211,-0.0146484,0.0180054,-0.0106812
132,3,0.0100708,-0.0296021,0.03479,0.0210571,0.0195312,0.0268555,0.00793457,0.0314331,0.0161743,0.00244141,-0.00579834,0.0170898,-0.00976562
132,4,0.022583,0.0363159,0.0195312,0.012207,0.022583,0.0378418,0.0180054,0.0253296,0.0167847,0.0183105,-0.0109863,0.0564575,-0.00732422
133,0,0.015564,0.0357056,0.0369263,0.0259399,0.0241089,0.0341797,0.0158691,0.0299072,0.0143433,0.00915527,-0.0149536,0.0112915,0.00305176
133,1,0.0213623,0,0.00549316,0.0244141,-0.00549316,0.0384521,0.0119019,0.0216675,0.00427246,0.0161743,-0.0216675,0.00152588,0.00793457
133,2,0.0708008,0.0100708,0.0164795,0.0579834,0.0396729,0.0372314,0.00366211,0.0384521,0.00457764,0.010376,-0.0115967,0.0216675,0.0012207
133,3,0.0219727,0.0177002,0.0482178,0.0210571,0.0387573,0.0384521,0.0360107,0.0256348,0.0128174,0.0125122,-0.0170898,0.0198364,-0.0189209
133,4,0.0216675,0.0222778,0.0228882,0.038147,0.0497437,0.0247192,0.0152588,0.0125122,0.0192261,0.00823975,-0.0259399,0.022583,0.0146484
134,0,0.0369263,0.0149536,0.0149536,0.0341797,0.0247192,0.0186157,0.0180054,0.0177002,0.00732422,0.0292969,-0.0100708,0.0140381,0.0256348
134,1,0.0396729,0.0167847,0.0369263,0.0268555,0.0424194,0.0338745,0.0296021,0.0152588,0.00610352,0.0119019,-0.00946045,0.0268555,0.0460815
134,2,0.0183105,0.038147,0.0372314,0.0402832,0.0360107,0.0387573,0.0531006,0.00335693,0.010376,0.017395,-0.0161743,0.017395,0.0335693
134,3,0.00640869,0.0271606,0.0274658,0.0317383,0.0189209,0.0405884,0.0576782,0.0210571,0.0137329,-0.0305176,-0.0183105,0.0195312,0.0350952
134,4,0.0234985,0.0213623,0.0305176,0.017395,0.0354004,0.032959,0.0305176,0.022583,0.0213623,0.00671387,-0.00396729,0.022583,0.0393677
135,0,0.010376,0.0170898,0.0280762,0.0332642,0.0415039,0.0265503,0.0302124,-0.00549316,0.0213623,0.0280762,-0.0100708,0.0302124,0.0262451
135,1,0.0106812,0.0134277,0.0213623,0.0375366,0.0784302,0.0234985,0.0161743,0.0149536,0.0149536,0.0198364,-0.0280762,0.00976562,0.0262451
135,2,0.0167847,0.0112915,0.0204468,0.0338745,0.0360107,0.0601196,0.0247192,0.020752,0.0210571,0.0314331,-0.00396729,0.0305176,0.0158691
135,3,0.0100708,0.0302124,0.000915527,0.0231934,0.0738525,0.0354004,0.0405884,-0.0323486,0.020752,0.0146484,-0.0131226,0.0268555,0.0341797
135,4,0.0170898,0.0289917,0.0457764,0.0213623,0.0265503,0.022583,0.0357056,0.0216675,0.0125122,0.0158691,-0.0219727,0.0140381,0.0457764
136,0,0.0222778,0.0299072,0.0115967,0.0131226,0.0274658,0.00823975,0.0369263,0.00640869,0.0390625,0.0137329,-0.0289917,0.0128174,0.0317383
136,1,0.0308228,0.0253296,0.00946045,-0.00366211,0.0317383,0.0231934,0.0250244,0.0198364,0.0128174,0.0210571,-0.0314331,0.00701904,0.0271606
136,2,0.0088501,-0.0106812,0.0128174,0.0402832,0.0616455,0.0323486,0.0280762,0.0323486,0.0216675,0.0198364,-0.0216675,0.0268555,0.0268555
136,3,0.00274658,0.00823975,0.0167847,0.0106812,0.0186157,0.0350952,0.0357056,0.0268555,0.0109863,0.0204468,-0.0219727,0.0143433,0.045166
136,4,0.0125122,0.0454712,0.0137329,0.0216675,0.0152588,0.0149536,0.0354004,-0.0457764,0.0244141,0.0186157,-0.0213623,0.0189209,0.0445557
137,0,0.0125122,0.0805664,0.0195312,0.0158691,0.0457764,0.0326538,0.0500488,0.0143433,0.0137329,0.0262451,-0.0189209,0.0189209,0.0308228
137,1,0.0125122,0.0186157,0.0167847,0.0335693,0.0372314,0.0289917,0.0332642,0.00671387,0.0152588,0.0198364,-0.0231934,0.0143433,0.0512695
137,2,0.022583,0.015564,0.0283813,0.0338745,0.039978,0.0274658,0.0396729,0.0250244,0.00610352,0.0308228,-0.00274658,0.0167847,0.0250244
137,3,0.0320435,0.0161743,0.0341797,0.022583,0.0244141,0.0238037,0.00732422,0.0241089,0.0183105,-0.0314331,-0.0280762,0.00152588,0.0112915
137,4,0.0128174,0.0250244,0.0219727,0.0256348,0.0283813,-0.00274658,0.0411987,0.0140381,0.0180054,0.03479,-0.0128174,0.0161743,0.0411987
138,0,-0.0201416,0.0222778,0.0158691,-0.0125122,0.0115967,0.0250244,0.032959,0.0164795,0.0286865,0.0152588,-0.0158691,0.0189209,0.0143433
138,1,0.0274658,0.0259399,0.0213623,0.00244141,0.0253296,0.038147,0.0286865,0.0299072,0.00457764,0.0140381,-0.0250244,0.0112915,0.00976562
138,2,0.0152588,0.0222778,0.0119019,0.0274658,0.0149536,0.00549316,0.0146484,0.0164795,0.0213623,0.0198364,-0.0140381,0.00457764,-0.000915527
138,3,0.0183105,0.0302124,0.0177002,0.0271606,0.0296021,0.0384521,0.0332642,0.0308228,0.0387573,0.0598145,-0.0305176,0.0222778,0.0183105
138,4,0.000610352,0.0183105,0.0198364,0.0247192,0.032959,0.0521851,0.0308228,0.0286865,0.027771,0.00915527,-0.0253296,0.0149536,0.010376
139,0,0.0350952,0.0195312,0.00549316,0.0238037,0.0204468,0.0482178,0.0262451,0.0479126,0.0146484,0.00701904,-0.0186157,0.0219727,-0.0262451
139,1,0.00671387,0.0253296,0.0259399,0.0335693,0.00915527,0.0421143,0.0192261,0.0369263,0.0109863,0.0198364,-0.0228882,-0.00152588,-0.00549316
139,2,-0.00488281,0.00579834,0.015564,0.0292969,0.0216675,0.039978,0.0231934,0.0244141,0.0259399,0.0161743,-0.0259399,0.0131226,0.00640869
139,3,0.0378418,-0.00854492,0.0384521,0.0262451,0.0570679,0.062561,0.0289917,0.0354004,0.0210571,0.0247192,-0.0204468,0.0201416,0.00762939
139,4,0.0485229,0.00457764,0.0311279,0.0527954,0.0427246,0.0335693,0.0387573,0.0259399,0.00793457,-0.0265503,-0.0411987,0.0308228,-0.0198364
140,0,0.0512695,0.0204468,0.0170898,0.0396729,0.0192261,0.0360107,0.0286865,0.0378418,0.0305176,0.0164795,-0.0247192,0.0112915,0.000305176
140,1,0.0210571,0.0170898,0.00823975,0.0286865,0.0158691,-0.0146484,0.0283813,0.0283813,0.032959,0.0164795,-0.0271606,0.0302124,0.00274658
140,2,0.0262451,0.027771,0.0183105,0.0311279,0.00579834,0.0262451,-0.00457764,0.0439453,0.0201416,0.0772095,-0.0204468,0.0198364,0.000305176
140,3,-0.03479,0.017395,0.0250244,0.0238037,-0.017395,0.0326538,0.0360107,0.0234985,0.0265503,0.0164795,-0.0256348,0.0158691,0.0125122
140,4,0.0250244,0.0170898,0.0128174,0.0213623,-0.00305176,0.027771,0.0296021,0.0247192,0.0357056,0.0109863,-0.0210571,-0.0170898,0.0366211
141,0,0.0292969,0.0131226,0.022583,0.0189209,0.0106812,0.0497437,0.038147,0.0311279,0.0244141,0.0234985,-0.020752,0.00335693,0.0222778
141,1,0.0106812,0.0143433,0.0296021,0.0274658,0.0204468,0.0439453,0.0415039,0.0796509,0.00915527,0.00549316,-0.0366211,0.0189209,0.0149536
141,2,-0.0241089,0.0109863,0.0201416,-0.0479126,0.0384521,0.0271606,0.0262451,0.0112915,0.017395,0.0692749,-0.0125122,0.00915527,0.0115967
141,3,0.0112915,0.0109863,0.0198364,0.0262451,0.0436401,0.0341797,0.0463867,0.0189209,0.0204468,0.0268555,-0.0323486,0.00610352,0.0161743
141,4,0.0195312,0.0213623,0.0439453,0.00976562,0.0418091,0.0192261,0.0323486,0.0204468,0.0204468,0.017395,-0.00396729,0.0152588,0.0210571
142,0,0.0393677,0.00274658,0.0164795,0.015564,0.0460815,0.0164795,0.0350952,0.0335693,0.00610352,0.0396729,-0.0161743,0.0213623,0.0289917
142,1,0.0189209,0.0299072,0.0299072,0.010376,0.0509644,0.0415039,0.0250244,0.038147,0.0283813,0.0201416,-0.0244141,-0.0012207,0.0756836
142,2,0.00946045,0.00213623,0.0302124,0.0363159,0.043335,0.0216675,0.0387573,0.0216675,0.0259399,0.0115967,-0.0115967,0.0109863,0.0189209
142,3,0.0314331,0.0131226,0.0137329,0.0231934,0.0576782,0.0326538,0.0253296,0.0305176,0.0198364,-0.00427246,-0.0234985,0.00305176,-0.000915527
142,4,0.0186157,-0.00152588,-0.00610352,0.0308228,0.045166,0.0198364,0.0320435,0.0286865,0.0131226,0.015564,-0.0149536,0.00946045,0.0146484
143,0,0.0115967,0.00946045,0.0335693,0.00488281,0.0460815,-0.00152588,0.039978,0.0283813,-0.0213623,0.0131226,-0.017395,-0.0183105,0.0341797
143,1,0.0158691,0.0274658,0.00915527,0.0244141,0.0317383,0.00823975,0.0317383,0.0305176,0.0402832,0.0201416,-0.0323486,0.0317383,0.0445557
143,2,0.000610352,0.00213623,0.022583,0.022583,0.123901,0.0186157,0.0283813,0.085144,0.0186157,0.0134277,-0.0238037,0.0262451,0.0195312
143,3,-0.0234985,0.0161743,0.0305176,-0.0012207,0.0350952,0.0332642,0.0195312,0.0308228,0.0292969,0.0183105,-0.0186157,-0.00244141,0.0305176
143,4,0.0134277,0.0222778,0.0369263,0.0189209,0.0189209,0.0543213,0.038147,-0.0119019,0.0350952,0.0305176,0.015564,0.0125122,0.0231934
144,0,0.0189209,0.0170898,0.015564,0.0146484,0.0640869,0.0753784,0.0457764,0.0396729,0.0384521,0.0146484,-0.0268555,0.0189209,0.0302124
144,1,0.0183105,0.0198364,0.00244141,0.0363159,0.0439453,0.00152588,0.0515747,0.0445557,0.0302124,0.0106812,-0.0314331,0.0259399,0.0421143
144,2,0.0100708,-0.0302124,0.00366211,0.0238037,0.0201416,0.0271606,0.0411987,0.0222778,0.0372314,0.020752,-0.0366211,-0.0109863,0.0228882
144,3,0.0253296,0.0292969,0.0274658,0.0149536,0.0149536,0.0210571,0.0305176,0.0222778,0.0268555,0.0283813,-0.0268555,0.0192261,0.0305176
144,4,0.00427246,0.00915527,-0.00213623,0.00274658,0.0219727,0.0149536,0.0201416,0.0125122,0.0393677,0.0228882,-0.0280762,0.0167847,0.0427246
145,0,0.0271606,0.0177002,0.00854492,0.0143433,0.00518799,0.0286865,0.0396729,0.0378418,0.0259399,0.0442505,-0.0335693,0.00854492,0.0335693
145,1,0.0183105,0.0274658,0.00732422,0.0244141,0.00183105,0.0158691,0.0860596,-0.0143433,0.0201416,-0.000610352,-0.0201416,0.00701904,0.0402832
145,2,0.0265503,0.0100708,0.0158691,0.0146484,0.0418091,0.0296021,0.0366211,0.0201416,0.032959,0.0262451,-0.03479,0.0170898,0.0393677
145,3,0.0241089,0.00274658,0.00762939,0.0192261,0.0326538,0.0296021,0.0323486,0.0292969,0.0469971,0.0305176,-0.00915527,-0.000610352,0.0247192
145,4,0.0149536,0.00366211,0.00671387,0.010376,0.0268555,0.0482178,0.0308228,0.0430298,0.0109863,0.0192261,-0.032959,0.00488281,0.0134277
146,0,0.0222778,-0.00427246,0.0256348,0.0213623,0.0183105,0.0201416,0.0115967,0.0372314,-0.00610352,-0.00244141,-0.0189209,0.0250244,0.0283813
146,1,0.0115967,-0.0320435,0.0253296,0.0186157,0.0198364,0.03479,0.0253296,0.0375366,0.0338745,0.0189209,-0.017395,-0.0500488,-0.00183105
146,2,0.0146484,0.00640869,0.0247192,0.0262451,0.0100708,0.0930786,0.0338745,0.0271606,0.027771,0.0143433,-0.0247192,0.022583,-0.00610352
146,3,0.0134277,0.00762939,0.00976562,0.0259399,0.00976562,0.0308228,0.0323486,0.0296021,0.0357056,0.0265503,-0.0350952,0.0119019,-0.0140381
146,4,0.0305176,0.0283813,0.0210571,0.0210571,0.00244141,0.0415039,0.0189209,0.0436401,0.0234985,0.017395,-0.00549316,-0.00823975,-0.0183105
147,0,0.0180054,0.0146484,0.00335693,0.00305176,0.00854492,0.0588989,0.0167847,0.0323486,0.0219727,0.00823975,-0.00213623,0.0201416,-0.0198364
147,1,0.0317383,-0.0152588,0.00335693,0.0250244,-0.0106812,0.0369263,0.0250244,0.0396729,0.0354004,0.0128174,-0.0149536,0.00457764,0.000305176
147,2,0.0250244,0.0167847,0.0262451,0.0152588,0.0170898,0.0283813,0.0253296,0.0650024,0.0427246,0.0149536,-0.0137329,0.0289917,-0.0234985
147,3,0.0732422,0.010376,0.0292969,-0.0170898,0.0283813,0.03479,0.0268555,0.0436401,0.0390625,0.00946045,-0.0332642,0.00915527,-0.00823975
147,4,0.0137329,0.022583,0.0247192,0.0140381,0.00976562,0.012207,0.0842285,0.03479,0.0320435,0.0341797,-0.00762939,0.0286865,-0.00915527
148,0,-0.0234985,-0.00549316,0.0262451,0.0271606,0.0302124,0.0201416,0.0363159,0.0436401,0.0354004,0.0143433,-0.0289917,0.0152588,-0.00732422
148,1,0.0350952,0.0149536,0.0241089,0.0183105,0.0195312,0.010376,0.0256348,0.0195312,0.0231934,0.00610352,-0.0167847,0.0299072,-0.000915527
148,2,0.0354004,0.0137329,0.0183105,-0.0140381,0.022583,0.0143433,0.00610352,0.0308228,0.0222778,0.0753784,-0.0241089,0.0219727,0.0466919
148,3,0.0195312,0.0256348,0.0253296,0.0204468,-0.00915527,0.0350952,0.032959,0.072937,0.0177002,0.0314331,-0.0595093,0.0234985,0.00579834
148,4,0.015564,0.0186157,0.017395,0.0482178,0.0183105,0.0170898,0.0469971,0.017395,-0.0012207,0.027771,-0.027771,0.0531006,0.0180054
149,0,0.0131226,0.0177002,0.00671387,0.0198364,0.0228882,0.0320435,0.0311279,0.0167847,0.0204468,0.0469971,-0.0332642,0.032959,0.0115967
149,1,0.0775146,0.0314331,0.0253296,-0.0387573,0.0152588,0.0170898,0.0686646,0.0201416,0.022583,-0.00152588,-0.0424194,0.020752,0.0311279
149,2,0.0231934,0.0210571,0.0088501,-0.0177002,0.00946045,0.0213623,0.0421143,0.0128174,0.0271606,0.0674438,-0.0259399,0.0189209,0.0265503
149,3,0.0201416,0.00671387,0.0308228,0.0466919,0.0384521,0.0292969,0.012207,0.0210571,0.0134277,0.0567627,-0.0201416,0.0125122,0.0253296
149,4,0.0274658,0.0195312,0.00732422,0.0177002,0.0219727,0.0344849,0.038147,0.0192261,0.0341797,0.0549316,-0.0305176,0.0222778,0.0186157
150,0,0.0244141,-0.00335693,0.012207,0.00274658,0.0106812,0.0256348,0.0515747,0.0308228,0.0357056,0.0543213,-0.027771,0.0219727,0.0238037
150,1,0.0186157,-0.0311279,0.00244141,0.0286865,0.0854492,-0.0152588,0.0262451,0.0201416,0.0357056,0.050354,-0.0265503,0.0106812,0.0415039
150,2,0.0289917,0.00152588,0.015564,0.0192261,0.0109863,0.0125122,0.0357056,0.0424194,0.0320435,0.0558472,-0.0704956,0.0283813,0.0384521
150,3,0.017395,-0.039978,0.00701904,0.0140381,0.0241089,0.0152588,0.0469971,0.0201416,0.0427246,0.0317383,-0.0299072,0.0210571,0.0408936
150,4,0.0247192,0.0112915,0.00671387,0.0109863,0.0350952,0.0231934,0.0289917,0.0186157,0.0497437,0.0454712,-0.0387573,0.00732422,0.0375366
151,0,0.0970459,0.0134277,0.0134277,0.0177002,0.0234985,0.0241089,0.0466919,0.017395,0.0323486,0.0238037,-0.0378418,0.0152588,0.0463867
151,1,0.0259399,0.00732422,0.0180054,0.00183105,0.0158691,0.0210571,0.017395,0.0158691,0.0363159,0.0424194,-0.0402832,0.0216675,0.06073
151,2,0.0292969,0.00976562,0.0164795,0.0161743,0.0274658,0.0222778,0.0442505,0.0363159,0.0299072,0.0442505,-0.0238037,0.0259399,0.0488281
151,3,0.0146484,0.0140381,0.0167847,0.00274658,0.027771,0.00213623,0.0350952,0.0634766,0.0219727,0.0253296,-0.0436401,0.0283813,0.0466919
151,4,0.027771,0.0131226,0.00976562,0.0146484,0.0253296,0.0100708,0.0109863,0.0216675,0.0326538,0.0442505,-0.0308228,0.0192261,0.0592041
152,0,0.0250244,0.0183105,0.0308228,0.0189209,0.0332642,0.015564,0.0146484,0.0280762,0.0299072,0.0393677,-0.0332642,0.0219727,0.0698853
152,1,0.0177002,0.0189209,0.0170898,0.0201416,0.010376,0.0320435,0.0238037,0.00732422,0.0201416,0.0265503,-0.00976562,0.0210571,-0.0201416
152,2,0.0244141,0.0402832,0.0201416,0.0146484,0.020752,0.0253296,0.0408936,0.0231934,0.03479,0.0100708,-0.0289917,0.0186157,0.0283813
152,3,0.0259399,0.0183105,0.000915527,0.0253296,0.0289917,0.0378418,0.032959,0.0286865,0.0332642,0.0186157,-0.0268555,0.0140381,0.0256348
152,4,-0.0283813,0.0146484,0.0170898,0.0143433,0.0296021,0.0219727,0.0292969,0.0201416,0.0280762,0.0158691,-0.0213623,0.0256348,0.00183105
153,0,0.0265503,0.0210571,0.00762939,0.0167847,0.0286865,0.0134277,0.00854492,0.0332642,0.0357056,0.0344849,-0.0302124,0.039978,-0.00579834
153,1,0.0222778,0.0372314,-0.000305176,0.0189209,0.00305176,0.039978,0.0112915,0.00518799,0.0344849,0.027771,-0.0201416,0.0170898,0.0149536
153,2,0.0134277,0.0115967,0.0665283,0.0149536,0.00610352,0.038147,0.0146484,0.0482178,0.0241089,0.00274658,-0.010376,0.0186157,0.0143433
153,3,0.0274658,0.0152588,0.0177002,0.0268555,0.00457764,0.0134277,0.0186157,0.0402832,0.0860596,-0.00579834,-0.0201416,0.0308228,-0.0241089
153,4,0.0286865,0.0280762,0.00915527,0.0198364,-0.000610352,0.0531006,0.0268555,0.0369263,0.039978,-0.0128174,-0.017395,0.0204468,-0.00366211
154,0,0.0109863,0.0201416,0.0137329,0.0268555,-0.0357056,0.0311279,0.0244141,-0.00305176,0.0292969,0.0143433,-0.00152588,0.0213623,0.00152588
154,1,0.0271606,0.010376,0.0210571,0.0164795,0.0213623,0.0405884,0.0357056,0.0357056,0.0247192,0.0271606,-0.0192261,0.0164795,-0.0161743
154,2,0.0265503,0.00488281,0.0234985,0.032959,0.00701904,0.0143433,0.0146484,0.0201416,0.00823975,0.0317383,0.0177002,0.045166,0.0125122
154,3,0.0228882,0.0201416,0.0268555,0.0280762,0.00335693,0.0253296,0.0170898,0.0924683,0.0326538,0.0375366,-0.0247192,0.0222778,0.00305176
154,4,0.0268555,0.017395,0.0222778,0.0280762,-0.000915527,0.0369263,0.0204468,0.0448608,0.0286865,0.0222778,-0.0253296,0.0280762,-0.00732422
155,0,0.0250244,0.0305176,0.0170898,0.0439453,0.0134277,0.0109863,0.0219727,0.0338745,0.0286865,0.0466919,-0.0170898,0.0253296,0.00610352
155,1,0.0274658,0.00732422,0.0234985,0.0177002,0.0189209,0.0241089,0.0378418,0.0564575,0.0253296,0.0506592,-0.0244141,0.0222778,0.0701904
155,2,0.0439453,0.0128174,0.0180054,0.0131226,0.00854492,0.00549316,0.0088501,0.0387573,0.0372314,0.0790405,-0.020752,0.0646973,-0.0140381
155,3,0.0259399,0.0109863,0.0128174,0.0241089,0.012207,0.0149536,0.0759888,0.0244141,0.0271606,0.100403,-0.0228882,0.0323486,0.00152588
155,4,0.0238037,0.0158691,0.0402832,0.0296021,0.020752,0.0393677,0.0204468,0.057373,0.0302124,0.0448608,-0.0335693,0.0228882,0.0228882
156,0,0.0268555,0.0186157,0.0411987,0.0234985,0.0149536,-0.027771,0.0268555,0.0299072,-0.0411987,0.0317383,-0.0274658,-0.0338745,0.0253296
156,1,0.0350952,0.0280762,-0.00305176,0.00762939,0.0253296,0.0375366,0.0222778,0.0146484,0.0588989,0.0531006,-0.0265503,0.0387573,0.0234985
156,2,0.012207,0.0143433,-0.0106812,0.00793457,0.0234985,0.0650024,0.0134277,0.0384521,0.0259399,0.0341797,-0.0396729,0.0317383,0.0387573
156,3,0.0289917,0.0360107,0.0274658,0.0131226,0.0170898,0.00762939,0.022583,0.0186157,0.0323486,0.0128174,-0.0274658,0.0323486,0.0640869
156,4,0.0274658,0.0088501,0.0280762,0.0183105,0.0216675,0.0186157,0.0354004,0.020752,0.0244141,0.0299072,-0.0201416,0.0234985,0.027771
157,0,0.0390625,0.0146484,0.0149536,0.0671387,0.0289917,0.0180054,0.00915527,0.0338745,0.0253296,0.0299072,-0.03479,0.0228882,0.0387573
157,1,0.0393677,0.0274658,-0.00335693,0.00640869,0.0204468,0.0088501,0.0326538,0.0921631,0.0234985,0.038147,-0.000305176,0.0247192,0.0415039
157,2,0.00274658,0.0262451,0.0256348,0.0463867,0.0143433,-0.0125122,0.0228882,0.0238037,0.0234985,0.0683594,-0.0326538,0.0457764,0.00213623
157,3,0.0521851,0.0317383,0.0350952,0.0131226,0.0265503,0.0100708,0.0286865,0.0192261,0.032959,0.0286865,-0.0439453,0.0268555,0.0537109
157,4,0.0354004,0.0088501,0.0241089,0.0161743,0.0219727,0.00610352,0.0280762,0.0332642,0.0317383,0.0506592,-0.0326538,0.0299072,0.0686646
158,0,0.0387573,0.0305176,0.0305176,0.00305176,0.0228882,0.0128174,0.0256348,0.0158691,0.0112915,0.0201416,-0.0320435,0.00976562,0.0686646
158,1,0.0540161,0.0241089,0.015564,-0.0332642,0.0125122,-0.000305176,0.0445557,0.0100708,0.0231934,0.0253296,-0.0473022,0.0396729,0.0662231
158,2,0.0238037,0.0292969,0.00305176,0.0158691,0.0219727,0.0271606,0.0189209,0.0186157,-0.0369263,0.00549316,-0.0335693,0.0918579,0.0982666
158,3,0.0314331,-0.00305176,0.0241089,0.0656128,0.0323486,0.00762939,0.00549316,0.017395,0.0149536,0.0213623,-0.0463867,0.0170898,0.067749
158,4,0.0256348,0.0250244,0.0259399,0.0354004,0.0238037,-0.00183105,0.0244141,0.0201416,0.0112915,0.0305176,-0.0274658,0.015564,0.0750732
159,0,0.0366211,0.0164795,0.0360107,-0.0149536,0.0378418,0.00396729,-0.0439453,0.010376,0.022583,0.022583,-0.0286865,0.0265503,0.06073
159,1,0.00335693,0.0247192,0.0216675,-0.00793457,0.0201416,0.00640869,0.00305176,0.00946045,0.0231934,0.010376,-0.0378418,0.0222778,0.0610352
159,2,0.0469971,0.0256348,0.0289917,0.0201416,0.0115967,-0.0585938,0.0100708,0.0186157,-0.043335,0.0402832,-0.0344849,0.0415039,0.0534058
159,3,0.0378418,0.0442505,0.0283813,0.0152588,-0.015564,0.0289917,0.00244141,0.0317383,0.0305176,0.0326538,-0.0527954,0.0369263,0.050354
159,4,0.0292969,0.0479126,0.0296021,0.0152588,-0.00701904,0.00427246,0.0149536,0.0186157,0.0210571,0.0241089,-0.0335693,0.027771,0.0299072
160,0,0.0344849,0.032959,0.0183105,-0.000305176,0.0241089,0.0241089,0.0189209,0.0289917,0.0222778,0.0106812,-0.027771,0.0332642,0.0204468
160,1,0.0283813,0.0619507,0.0186157,0.0195312,0.0512695,0.0167847,0.0311279,0.0250244,0.0234985,0.0119019,-0.0308228,0.039978,0.0180054
160,2,0.0390625,0.0341797,0.015564,0.0167847,0.020752,0.0259399,0.010376,0.0369263,-0.0262451,0.0164795,-0.0341797,0.0180054,0.0109863
160,3,0.0231934,0.0363159,0.0149536,0.0146484,0.0262451,0.0177002,0.0125122,0.0326538,0.0106812,0.0265503,-0.0250244,-0.0012207,0.0177002
160,4,0.0384521,0.0296021,0.0634766,0.0308228,0.0457764,0.0119019,0.0228882,0.0463867,-0.00305176,0.0354004,-0.0222778,0.0488281,0.00793457
161,0,0.0354004,0.0332642,0.0244141,0.0289917,0.0344849,0.0201416,0.0180054,0.0131226,0.0250244,0.0164795,-0.0271606,0.0271606,-0.0161743
161,1,0.0292969,0.0247192,0.0195312,0.0201416,0.022583,0.0119019,0.00854492,0.0183105,0.0149536,-0.0436401,-0.0271606,0.0308228,0.00701904
161,2,-0.00396729,0.0250244,0.0088501,0.0198364,0.0350952,0.0448608,0.0152588,0.0363159,-0.00366211,0.0317383,-0.0289917,0.0469971,-0.000610352
161,3,0.0213623,0.032959,-0.0143433,0.0152588,0.00671387,0.0537109,0.0378418,0.00976562,0.0222778,0.00244141,-0.0170898,0.0164795,0.0012207
161,4,0.0332642,0.0378418,0.0375366,-0.00976562,0.015564,0.0134277,0.00549316,0.0320435,0.00671387,0.0299072,-0.0143433,0.0299072,-0.0012207
162,0,0.0265503,0.0088501,0.0369263,0.0189209,-0.0109863,0.00823975,0.0128174,0.0454712,0.0152588,0.0262451,-0.0201416,0.0390625,-0.0012207
162,1,0.0213623,0.0335693,0.045166,0.0189209,0.0491333,0.00152588,0.0125122,0.00701904,0.0650024,0.0369263,-0.00915527,0.0283813,-0.00854492
162,2,-0.000915527,0.0305176,0.0363159,0.0372314,0.0204468,0.00457764,0.0332642,0.0228882,0.0250244,0.0234985,-0.0408936,0.0375366,0.0128174
162,3,0.0439453,0.0790405,0.0323486,0.00915527,-0.0192261,0.0201416,0.0228882,0.0488281,0.0271606,0.00915527,-0.0161743,0.0137329,0.0100708
162,4,0.0396729,0.0357056,0.0204468,0.0375366,0.010376,0.00610352,0.0164795,0.0170898,0.0231934,0.0253296,-0.0311279,0.0201416,-0.0619507
163,0,0.0561523,0.0332642,0.00701904,0.00244141,0.0177002,0.017395,0.00854492,0.017395,0.0167847,0.0283813,-0.0402832,0.0292969,0.0152588
163,1,0.0183105,0.0161743,0.0482178,0.0350952,0.0350952,0.0143433,-0.00518799,0.020752,0.0271606,0.000915527,-0.0424194,0.0350952,0.0115967
163,2,0.0320435,0.0189209,0.0271606,0.0137329,0.00976562,0.0286865,0.00305176,0.0164795,0.0402832,0.0189209,-0.038147,0.0363159,0.00579834
163,3,0.043335,0.0430298,0.00457764,0.010376,0.0231934,0.010376,0.0222778,0.0134277,0.0262451,0.0335693,-0.0271606,0.0405884,0.00457764
163,4,0.038147,0.0198364,0.0299072,0.0222778,-0.00701904,-0.00274658,0.00946045,-0.0247192,0.0201416,0.0219727,0.00335693,0.0335693,0.0186157
164,0,0.0219727,0.0274658,0.0390625,0.032959,0.0350952,0.012207,0.00732422,0.0137329,0.0744629,0.0350952,-0.0314331,0.0939941,0.0189209
164,1,0.0488281,0.0189209,0.0296021,0.0463867,0.0149536,0.00396729,0.00335693,0.00396729,0.00396729,0.0320435,-0.0622559,0.0396729,0.0314331
164,2,0.0192261,0.0219727,0.0283813,0.0161743,0.0216675,0.0204468,0.0167847,0.0158691,0.0140381,0.00305176,-0.0369263,0.0363159,0.0372314
164,3,0.0338745,-0.00427246,0.0280762,0.0134277,0.0137329,0.00946045,0.0256348,0.022583,0.03479,0.0247192,-0.0421143,0.0326538,0.0265503
164,4,0.0506592,0.0317383,0.0259399,0.0222778,0.00854492,0.0106812,0.00610352,-0.0393677,0.0164795,0.00671387,-0.038147,0.0253296,0.0201416
165,0,0.0393677,0.0463867,0.0411987,0.0228882,0.0411987,0.0222778,0.0112915,0.00640869,0.0170898,0.0167847,-0.0305176,0.038147,0.0457764
165,1,0.012207,0.0335693,0.0106812,0.0442505,0.0323486,0.0222778,0.0576782,0.0210571,0.0323486,0.00701904,-0.0274658,0.038147,0.0213623
165,2,0.0564575,0.045166,0.00213623,0.0256348,0.0311279,0.0320435,0.0274658,0.0286865,0.0149536,0.0143433,-0.0216675,0.0271606,0.0933838
165,3,0.0393677,0.0283813,0.0439453,0.0387573,0.0143433,0.0299072,0.0775146,0.022583,0.0115967,-0.0158691,-0.0292969,0.0183105,0.032959
165,4,0.0408936,0.0341797,0.0543213,0.0344849,0.0137329,0.0259399,0.000305176,0.0177002,0.0302124,0.0338745,-0.0146484,0.012207,0.0354004
166,0,0.00457764,0.0308228,0.0616455,0.124512,0.0387573,0.0170898,0.0146484,0.0192261,0.0219727,-0.0201416,-0.0241089,0.0140381,0.0793457
166,1,0.0341797,0.0250244,0.0378418,0.0213623,0.0183105,0.0210571,0.0149536,0.015564,0.0143433,0.0323486,-0.0424194,0.0158691,0.0341797
166,2,0.0241089,0.0613403,0.03479,0.0363159,0.0292969,0.0234985,0.0311279,0.012207,0.00396729,0.0454712,-0.0292969,-0.0280762,0.0454712
166,3,0.0308228,0.0302124,0.0341797,0.0213623,0.0302124,0.00244141,0.0146484,0.0170898,0.010376,0.0357056,-0.0189209,0.0866699,0.0369263
166,4,0.00946045,0.0411987,0.0149536,0.0457764,0.038147,0.0170898,0.0167847,0.00488281,0.0250244,0.0469971,-0.0140381,0.0296021,0.0308228
167,0,-0.000915527,0.020752,0.010376,0.0302124,0.0320435,0.0177002,0.0231934,0.0112915,0.00946045,0.0292969,-0.0292969,0.0311279,0.0305176
167,1,0.00915527,0.0390625,0.0213623,0.00915527,0.0192261,0.0210571,0.0384521,0.0256348,0.0238037,0.0521851,-0.0476074,0.0299072,0.0323486
167,2,0.0393677,0.0393677,0.0146484,0.0241089,0.015564,0.00976562,0.0164795,0.0140381,0.0198364,0.0357056,-0.0299072,-0.00274658,0.0396729
167,3,0.0262451,0.0408936,0.0265503,0.0167847,0.00335693,0.0119019,0.0216675,-0.0192261,0.0241089,0.0299072,-0.0283813,0.0314331,0.0448608
167,4,0.0317383,0.0302124,0.0234985,0.0231934,-0.00854492,0.0283813,0.0292969,0.0408936,0.0167847,0.0448608,-0.0296021,0.0393677,0.0482178
168,0,0.0570679,0.03479,0.0274658,0.0247192,0.0152588,0.0210571,0.0283813,0.0271606,0.00915527,0.0393677,-0.0234985,0.0238037,0.0488281
168,1,0.0360107,0.0595093,0.0161743,0.0140381,0.0302124,0.0366211,0.0201416,0.0222778,0.00823975,0.0308228,-0.0335693,0.0302124,0.0289917
168,2,0.0344849,0.0384521,0.0146484,0.017395,0.0250244,0.0527954,0.0131226,0.0305176,0.0296021,0.0238037,-0.0335693,0.0332642,0.0259399
168,3,0.0088501,0.0491333,0.038147,0.0750732,0.0112915,0.0238037,0.0115967,0.0183105,0.0134277,0.027771,-0.0189209,0.0308228,0.0326538
168,4,0.0289917,0.0222778,0.03479,0.0177002,-0.0213623,0.0286865,0.00671387,0.020752,0.015564,0.0445557,-0.0396729,0.0305176,0.0213623
169,0,0.0201416,0.0289917,0.0302124,0.0192261,0.043335,0.0323486,0.00549316,0.0106812,0.0439453,0.0109863,-0.0500488,0.015564,0.0354004
169,1,0.0878906,0.0421143,0.0326538,0.0631714,0.0457764,0.022583,0.0283813,0.0128174,0.0201416,0.0192261,-0.0292969,0.0216675,0.057373
169,2,0.0326538,0.0357056,0.0430298,0.0378418,0.0247192,0.0222778,0.00915527,0.0177002,0.0195312,0.0088501,-0.0378418,0.0299072,0.0259399
169,3,0.00518799,0.0314331,0.0592041,0.0195312,0.0231934,0.00244141,0.00946045,0.0198364,0.032959,0.000915527,-0.0213623,0.0131226,0.00793457
169,4,0.0177002,0.0500488,0.050354,0.0219727,0.0158691,0.022583,0.00976562,0.0189209,0.0161743,0.00610352,-0.0256348,0.0222778,0.0256348
170,0,0.0219727,0.0518799,0.0579834,0.0497437,0.00915527,0.0186157,0.0112915,0.0299072,0.0137329,0.0140381,-0.0259399,0.0180054,0.0213623
170,1,0.0192261,0.032959,0.0454712,0.0143433,0.0350952,0.0479126,-0.00457764,0.0167847,0.0088501,0.0317383,-0.0219727,0.0256348,0.0238037
170,2,0.0512695,0.0344849,0.0436401,-0.0231934,0.0271606,0.0357056,0.00762939,0.0256348,0.0238037,0.0100708,-0.0256348,0.0360107,0.012207
170,3,0.0350952,0.0457764,0.0219727,0.0210571,0.0814819,0.039978,0.012207,-0.0112915,0.022583,0.0167847,-0.00457764,0.0244141,0.0213623
170,4,0.0140381,0.0115967,0.0228882,0.032959,0.010376,0.0326538,0.0143433,0.0546265,0.0143433,0.0158691,-0.0183105,0.012207,0.0137329
171,0,0.0283813,0.0506592,0.00946045,0.0375366,0.0241089,0.0323486,0.0253296,0.0125122,0.0323486,0.0112915,-0.0152588,0.0286865,0.0375366
171,1,0.0280762,0.027771,0.00366211,0.0119019,-0.0100708,0.027771,0.0180054,0.0189209,0.0201416,0.0128174,-0.0338745,-0.00427246,0.0280762
171,2,0.0302124,0.0534058,0.0180054,0.0283813,-0.00915527,0.0305176,0.0250244,0.0210571,0.0143433,0.0119019,-0.027771,0.0274658,0.0302124
171,3,0.0308228,0.0476074,0.00427246,0.0387573,0.0756836,0.0344849,0.0222778,0.0531006,0.0112915,0.00305176,-0.0253296,0.0360107,0.0473022
171,4,0.0869751,0.0405884,0.00640869,-0.0302124,0.0177002,0.0271606,-0.0320435,0.0177002,0.0180054,-0.0357056,-0.0244141,0.0250244,0.0619507
172,0,-0.00915527,0.0317383,0.0234985,0.0366211,0.03479,0.0326538,0.0283813,0.00854492,0.0106812,0.0115967,-0.0213623,0.0186157,0.0457764
172,1,-0.00305176,0.0286865,0.0320435,-0.00854492,0.0369263,0.0439453,0.0201416,0.0189209,-0.00457764,0.0115967,-0.0314331,0.0201416,0.0454712
172,2,0.027771,0.0238037,0.0473022,0.0222778,0.0210571,0.0411987,0.0238037,0.0390625,0.0143433,0.00854492,-0.0656128,0.0259399,0.057373
172,3,0.0357056,-0.0234985,0.0531006,0.0476074,-0.00305176,0.0387573,0.0308228,-0.0012207,0.012207,-0.010376,-0.0314331,0.022583,0.0534058
172,4,0.0283813,0.0283813,0.0357056,0.0274658,0.0354004,0.0219727,0.00396729,0.0354004,0.0500488,-0.00274658,-0.027771,0.043335,0.0415039
173,0,0.0436401,0.0183105,0.0527954,0.0259399,0.0491333,0.0286865,0.0146484,0.039978,0.015564,0.00915527,-0.0411987,0.020752,0.0265503
173,1,0.0247192,0.0323486,0.0543213,0.032959,0.0320435,0.0402832,0.0820923,0.0210571,0.0189209,0.0430298,-0.03479,0.022583,0.0378418
173,2,0.0384521,0.0421143,0.0167847,0.0302124,0.0430298,-0.0134277,0.0115967,0.00701904,-0.0088501,-0.000305176,-0.0198364,0.0390625,0.0164795
173,3,0.0338745,0.0543213,0.0717163,0.0210571,0.0299072,0.0344849,0.0128174,0.0320435,0.0643921,0.0180054,-0.0366211,0.0952148,-0.0100708
173,4,0.0314331,0.0479126,0.0827026,0.0302124,0.0274658,0.039978,0.0164795,0.0256348,-0.0189209,0.00244141,-0.0210571,-0.00244141,0.0128174
174,0,0.0170898,0.0323486,0.0732422,0.0408936,0.0241089,-0.0119019,0.017395,0.0167847,-0.0256348,0.0119019,-0.0119019,-0.00335693,0.0146484
174,1,0.0119019,0.0177002,0.0738525,0.0424194,0.0244141,0.0201416,0.0369263,0.0167847,0.0296021,-0.0198364,-0.022583,0.0219727,-0.0387573
174,2,-0.00335693,0.0192261,0.0460815,0.0363159,0.022583,0.0131226,0.0292969,-0.00183105,0.0140381,-0.010376,-0.0247192,0.0109863,0.00854492
174,3,-0.00823975,0.0177002,0.0244141,0.0192261,0.0140381,0.00549316,0.0402832,0.000915527,0.032959,-0.000305176,-0.0106812,0.022583,0.0360107
174,4,0.0378418,0.0378418,0.00579834,0.0564575,0.0332642,0.0125122,0.0259399,0.00427246,0.0247192,0.0259399,-0.0109863,0.0177002,0.0323486
