Devices
1000
,,Myon - Voltage,,,,,,,,,,,,,
Frame,Sub Frame,GC-M,TA,SOL,VM,VL,RF,BF,ST,GLUT-M,Gracilis,EO,GC-L,Semimembranosus
,,V,V,V,V,V,V,V,V,V,V,V,V,V
1,0,0.0280762,0.00457764,0.0314331,0.015564,0.0250244,0.022583,0.151062,3.05389,0.00396729,0.0317383,-0.0354004,0.0177002,0.0219727
1,1,0.0228882,0.0195312,-0.0311279,0.0189209,0.0170898,0.022583,0.137634,3.2135,0.00366211,0.0326538,-0.0244141,0.0402832,0.0234985
1,2,0.0326538,0.0320435,0.0323486,0.020752,0.000915527,0.0308228,0.12207,3.14148,0.0198364,0.0280762,-0.0384521,0.0366211,0.0219727
1,3,0.0244141,0.0222778,0.0332642,0.0283813,0.00427246,0.0195312,0.106506,3.01147,-0.00671387,0.0265503,-0.0442505,0.0518799,0.0192261
1,4,0.0262451,0.0219727,0.017395,0.0231934,0.0497437,0.0143433,0.0921631,2.95227,0.0125122,0.0387573,-0.0296021,0.0265503,0.0244141
2,0,0.0354004,0.032959,0.0131226,0.0149536,0.00549316,0.0476074,0.104065,2.81891,0.0112915,0.0317383,-0.0296021,0.0238037,0.0268555
2,1,0.0366211,0.0460815,0.0311279,0.0259399,0.0680542,0.0308228,0.090332,2.71729,0.0335693,0.0314331,-0.0247192,0.0250244,0.0256348
2,2,0.0357056,0.0402832,0.0354004,0.0167847,0.0164795,0.0619507,0.0750732,2.61017,0.0302124,0.020752,-0.0341797,0.0296021,0.0332642
2,3,0.0250244,0.027771,0.00183105,0.039978,0.0259399,-0.0146484,0.0787354,2.52838,0.0201416,0.0265503,-0.0192261,0.0320435,0.0259399
2,4,0.027771,0.0265503,0.0314331,0.0250244,0.0143433,0.0680542,0.0708008,-0.422058,0.0500488,0.0192261,-0.0213623,0.0631714,0.0341797
3,0,0.0286865,0.027771,0.0289917,0.0134277,0.00976562,0.00457764,0.0390625,2.42737,0.0115967,0.0234985,-0.0250244,0.0201416,0.0265503
3,1,0.0244141,0.0405884,0.0292969,0.0146484,0.00366211,0.0250244,0.0445557,-3.08075,0.0210571,0.0442505,-0.0341797,0.0286865,0.032959
3,2,0.015564,0.0250244,0.0292969,0.0088501,0.0088501,-0.00671387,0.032959,-3.17993,0.00823975,0.027771,-0.0430298,0.0463867,0.0234985
3,3,0.0234985,0.000915527,0.0234985,0.0164795,0.0259399,0.017395,0.039978,-3.20435,0.0128174,0.0274658,-0.0338745,0.0210571,0.0457764
3,4,0.0588989,0.0317383,0.0384521,0.0747681,0.0238037,0.0241089,0.101013,-2.16309,0.0149536,0.0759888,0.0119019,0.0384521,0.0869751
4,0,-0.0411987,0.0262451,0.0308228,-0.0375366,0.0161743,0.0241089,0.0338745,-2.69531,-0.00335693,0.0250244,-0.0259399,0.0418091,0.0341797
4,1,0.0265503,0.0134277,0.0354004,0.0271606,0.0189209,0.0152588,0.0320435,-1.91132,0.00732422,0.0259399,-0.03479,0.0363159,0.0305176
4,2,-0.0366211,0.0317383,0.0317383,0.0134277,0.0308228,0.0198364,0.0262451,-1.79688,0.017395,0.0390625,-0.0387573,0.0311279,0.0167847
4,3,0.022583,0.0286865,0.0299072,0.0286865,-0.010376,0.0115967,0.0228882,-0.767517,0.00244141,0.0332642,-0.0296021,0.0543213,0.0283813
4,4,0.0393677,0.0146484,0.0384521,0.0335693,0.0167847,0.0186157,0.0897217,0.71167,0.0231934,0.0662231,-0.0402832,0.0299072,-0.0384521
5,0,0.00854492,0.0283813,0.0234985,0.0234985,0.0204468,0.0265503,0.0158691,-0.0152588,0.0299072,0.0137329,-0.0332642,0.00213623,0.0378418
5,1,0.0201416,0.0296021,0.0683594,0.0100708,0.0262451,0.00762939,0.0112915,-2.28394,0.0280762,0.0256348,-0.0305176,0.0387573,0.0372314
5,2,0.0393677,0.0302124,0.0335693,0.022583,0.0210571,0.0189209,0.0180054,-2.57538,0.0109863,0.0201416,-0.0302124,0.0137329,0.0408936
5,3,0.00732422,0.0305176,0.0262451,0.0372314,0.0109863,0.0222778,-0.00427246,-3.18939,0.0125122,0.022583,-0.0387573,0.0311279,0.0585938
5,4,0.0268555,0.0186157,0.0457764,0.0311279,0.0244141,0.0186157,0.0231934,-3.12866,0.0146484,0.00762939,-0.0357056,0.0299072,0.0396729
6,0,0.0222778,0.038147,0.0350952,0.012207,0.0219727,0.0210571,0.015564,-1.36047,0.0305176,0.0292969,-0.0152588,0.0180054,0.0256348
6,1,0.0204468,0.0320435,0.0375366,0.0305176,0.022583,0.015564,0.0326538,-0.579529,0.0143433,0.00335693,-0.0375366,0.0286865,0.027771
6,2,-0.0186157,0.0262451,0.0274658,0.0396729,0.0296021,0.00762939,0.0125122,-0.0350952,0.0231934,0.0195312,-0.0234985,0.0341797,0.0436401
6,3,0.039978,0.038147,0.0317383,0.00640869,0.0253296,0.0244141,-0.0115967,0.228271,0.0012207,0.0375366,-0.0326538,-0.00305176,0.038147
6,4,0.0234985,0.0302124,0.0418091,0.0344849,0.0137329,-0.0357056,0.017395,-0.0216675,0.0393677,0.0128174,-0.03479,0.0341797,0.0460815
7,0,0.0164795,0.0198364,0.0253296,0.0234985,0.0283813,0.0488281,-0.000610352,-0.399475,0,0.0238037,-0.0259399,0.0256348,0.0283813
7,1,0.0292969,0.0115967,0.0375366,0.0234985,0.0262451,0.0222778,-0.00183105,-1.96777,0.032959,0.0234985,-0.0473022,0.0268555,0.0317383
7,2,-0.00213623,0.038147,0.0286865,0.0250244,0.0311279,0.0109863,-0.00396729,-2.95776,0.00488281,0.0302124,-0.0616455,0.0213623,0.0326538
7,3,0.0326538,0.0311279,0.0195312,0.0415039,0.0143433,0.0375366,0.00793457,-2.72919,0.0198364,0.043335,-0.0253296,0.0268555,0.0357056
7,4,0.0311279,0.0512695,0.0335693,0.020752,0.0274658,0.0128174,-0.0131226,-1.77338,0.0247192,0.0302124,-0.0268555,0.0189209,0.0234985
8,0,0.0357056,0.0378418,0.00549316,0.0372314,0.0280762,-0.0119019,-0.0158691,-0.733643,-0.022583,0.00701904,-0.0244141,0.0622559,0.0222778
8,1,0.0134277,0.0167847,0.039978,0.0259399,0.0210571,0.0134277,0.0100708,0.789795,0.0158691,0.0784302,-0.0308228,0.0231934,0.00610352
8,2,0.0646973,0.0158691,0.0195312,0.0640869,0.0259399,0.0222778,-0.012207,-0.0296021,0.0183105,0.0280762,-0.020752,0.0308228,0.0384521
8,3,0.0384521,0.0308228,0.0265503,0.0125122,0.0216675,0.0134277,-0.0582886,-1.5979,0.0131226,0.0161743,-0.017395,0.0198364,0.0372314
8,4,-0.0112915,0.0195312,0.0369263,0.00427246,0.0387573,0.000915527,0.0497437,-2.33368,0.0216675,0.0341797,-0.0387573,0.0268555,0.0115967
9,0,0.0292969,0.00854492,0.0292969,0.0213623,0.0335693,0.0268555,0.00946045,-2.0166,0.0134277,0.0180054,-0.0195312,0.0265503,0.0363159
9,1,0.0289917,0.0424194,0.0201416,0.0183105,0.0314331,0.0283813,-0.0137329,-2.51068,0.0180054,0.0265503,-0.0262451,-0.00518799,0.0421143
9,2,0.0274658,0.0314331,0.0204468,0.0283813,0.0311279,0.00518799,0.00946045,-2.07214,0.0247192,0.0231934,-0.0289917,0.0338745,0.0341797
9,3,0.0259399,0.00396729,0.0177002,0.0296021,0.00946045,0.0216675,0.00946045,-1.85364,0.00762939,0.0213623,-0.0265503,0.0454712,0.0408936
9,4,0.0271606,0.0280762,0.00946045,0.0219727,0.0408936,0.0268555,-0.00701904,-0.73822,0.0201416,0.0308228,-0.0289917,0.0222778,0.0512695
10,0,0.0164795,0.0256348,0.0119019,0.038147,0.0265503,0.0515747,0.0012207,0.968628,0.012207,0.0561523,-0.0177002,0.017395,0.0213623
10,1,0.0402832,0.0384521,0.032959,0.0305176,0.0323486,0.0314331,-0.00701904,1.52405,0.022583,0.0119019,-0.0195312,0.0250244,0.0558472
10,2,0.0192261,0.0238037,0.0360107,0.0241089,0.0598145,0.00671387,-0.00732422,2.04559,0.0234985,0.0393677,-0.0216675,0.0317383,0.0518799
10,3,0.0231934,0.0308228,0.027771,0.0302124,0.0274658,-0.0119019,-0.012207,2.30499,0.0143433,0.0100708,-0.0296021,0.022583,0.0256348
10,4,0.0296021,-0.0271606,0.0411987,0.0231934,0.0518799,0.0201416,0.0131226,2.16797,0.0241089,0.017395,-0.0180054,0.022583,0.0323486
11,0,0.0384521,0.0253296,0.0244141,0.0344849,0.0234985,0.0375366,0.00732422,2.72278,-0.045166,0.0128174,-0.0286865,0.0262451,0.0439453
11,1,0.0164795,0.0393677,0.0128174,0.0317383,0.101318,0.0268555,0.00671387,2.65137,0.015564,0.0164795,-0.0332642,0.0234985,0.0485229
11,2,0.0189209,0.0424194,0.0305176,0.0311279,0.0454712,0.0146484,0.000305176,2.16888,0.0183105,0.017395,-0.0262451,0.032959,0.0500488
11,3,0.000610352,0.03479,0.0372314,0.0109863,0.0335693,0.0112915,0,1.45599,0.0265503,0.0213623,-0.0292969,0.0320435,0.0439453
11,4,0.0259399,0.0292969,0.0408936,0.0326538,0.0219727,0.00854492,0.00366211,1.07849,0.0228882,0.00915527,-0.0238037,0.0265503,0.0408936
12,0,0.0271606,0.0192261,0.0335693,0.0296021,-0.000610352,0.00244141,0.00152588,1.24146,0.0271606,0.0198364,-0.065918,0.0332642,0.0531006
12,1,0.0164795,0.0259399,0.0308228,0.0357056,0.0262451,0.0177002,0.0134277,0.983887,0.0152588,0.0119019,-0.0262451,0.0418091,0.0369263
12,2,0.0250244,0.0234985,0.0323486,0.0323486,0.0396729,0.00640869,0.00671387,0.679016,0.00335693,0.00701904,-0.0210571,0.0338745,0.0482178
12,3,-0.0198364,0.0274658,0.0195312,-0.00762939,0.0323486,0.00915527,-0.00732422,1.41022,0.00518799,0.0222778,-0.0119019,0.0140381,0.0567627
12,4,0.0167847,0.0201416,0.0262451,0.0320435,0.0320435,0.0231934,-0.032959,1.09985,0.0271606,0.022583,-0.00946045,0.0161743,0.032959
13,0,0.00457764,0.0317383,0.0259399,0.0177002,0.0326538,0.0195312,0.0228882,1.15662,0.0299072,0.0247192,-0.0177002,0.0283813,0.0253296
13,1,0.0231934,0.0195312,-0.0143433,0.0363159,0.0262451,-0.0253296,0.0195312,1.26892,-0.00183105,0.00671387,-0.00427246,0.0631714,0.022583
13,2,0.0109863,0.0836182,0.038147,0.0387573,0.0488281,0.0210571,0.0140381,1.39099,0.0088501,0.00701904,-0.0140381,0.0289917,0.0198364
13,3,0.017395,0.0143433,0.0326538,0.0485229,0.0350952,0.0369263,0.00762939,1.28571,0.0302124,0.0183105,-0.0274658,-0.0323486,0.0186157
13,4,0.0360107,0.0314331,0.0253296,0.0106812,0.0149536,0.0146484,0.0115967,1.12366,0.0125122,0.0222778,-0.0524902,0.00762939,0.0320435
14,0,0.0210571,0.00915527,0.0308228,0.0375366,0.0296021,-0.0280762,-0.00183105,0.935364,0.06073,0.0216675,-0.0170898,0.00762939,0.0524902
14,1,0.0161743,0.0546265,0.0234985,0.0158691,0.0280762,0.0152588,0.00976562,0.631409,0.0268555,0.0354004,-0.0250244,0.0088501,0.0164795
14,2,-0.022583,0.0170898,0.0201416,0.0158691,0.0271606,0.0292969,0.0192261,1.18927,0.0250244,0.0216675,-0.0271606,0.012207,0.0189209
14,3,0.0222778,0.0296021,0.00946045,0.0375366,0.0332642,0.0436401,0.0234985,1.31531,0.0253296,0.0231934,-0.0238037,0.0158691,0.0375366
14,4,0.0161743,0.0100708,0.0790405,0.0286865,0.0543213,-0.0320435,0.0143433,1.12427,0.0601196,0.0228882,-0.0119019,0.0238037,0.0265503
15,0,0.0109863,0.0274658,0.0250244,0.0469971,0.0311279,0.0210571,-0.00793457,0.758362,0.03479,0.0131226,-0.0161743,0.017395,0.0198364
15,1,0.0170898,0.0280762,0.0384521,0.0308228,0.0210571,0.0131226,0.0244141,0.807495,-0.00366211,0.0189209,-0.0177002,-0.0186157,0.0189209
15,2,0.0152588,0.0177002,0.0338745,0.0250244,0.00549316,0.0326538,0.0189209,0.403442,0.0228882,0.0140381,-0.0274658,0.0286865,0.0222778
15,3,0.0161743,0.0213623,0.0213623,0.0534058,0.0289917,0.00793457,0.0280762,0.367737,0.0259399,0.0189209,-0.0238037,0.00823975,0.0292969
15,4,0.00915527,0.0265503,0.0338745,0.0350952,0.0192261,0.0442505,0.0796509,0.551147,-0.00305176,-0.0125122,-0.0186157,0.0256348,0.0247192
16,0,0.0302124,0.00671387,0.0250244,0.0244141,0.0521851,0.0210571,0.0106812,0.38208,0.0189209,-0.015564,-0.0262451,0.010376,0.0177002
16,1,0.0253296,0.0387573,0.0143433,-0.0192261,0.0283813,0.0271606,0.00305176,0.348511,0.015564,0.0357056,-0.015564,0.022583,-0.00488281
16,2,0.0271606,0.0335693,0.0305176,0.0234985,0.0234985,0.015564,0.0161743,0.44281,0.0125122,0.0134277,-0.0180054,0.0189209,0.020752
16,3,0.0234985,0.0189209,0.0439453,0.0292969,0.0289917,-0.000915527,0.0152588,0.501099,0.00793457,0.00610352,-0.0204468,0.0302124,0.0292969
16,4,-0.0088501,0.015564,0.0338745,-0.00335693,0.038147,0.0308228,0.0088501,0.299377,0.017395,0.0250244,-0.0195312,0.0158691,0.0177002
17,0,0.00854492,0.0125122,0.012207,0.0238037,0.0183105,0.0332642,0.0250244,0.0982666,0.0259399,0.0198364,-0.015564,-0.0088501,0.0640869
17,1,0.0152588,0.0186157,0.0241089,0.0283813,0.0250244,0.0558472,0.0131226,0.137329,0.0460815,0.0186157,-0.0424194,0.0424194,0.00701904
17,2,0.0143433,0.0299072,0.0231934,0.0274658,0.0311279,0.0299072,0.00732422,0.067749,0.0228882,-0.017395,-0.010376,-0.0219727,0.00946045
17,3,0.0106812,0.0942993,0.0323486,0.0265503,0.00640869,0.0335693,0.0222778,-0.0167847,0.0259399,-0.00183105,-0.0140381,0.0164795,0.0115967
17,4,0.032959,0.0262451,0.0366211,0.0238037,0.038147,0.015564,0.027771,-0.269165,0.00823975,0.00549316,-0.0106812,0.0744629,0.012207
18,0,0.0292969,0.0198364,0.0167847,0.0241089,0.0268555,0.0378418,0.0177002,0.131836,0.00305176,-0.0393677,-0.00335693,0.022583,-0.0436401
18,1,0.0234985,0.0088501,0.0302124,0.022583,0.03479,0.0448608,0.0299072,-0.147705,-0.0289917,0.00762939,-0.0256348,0.0088501,0.00915527
18,2,0.0204468,0.022583,-0.0268555,0.027771,0.0253296,0.0280762,0.0271606,-0.316162,0.00915527,0.00488281,-0.0198364,0.0210571,0.00305176
18,3,-0.00915527,0.0274658,0.0360107,0.0720215,0.0299072,0.0357056,0.022583,-0.0662231,0.0012207,-0.000610352,-0.0198364,0.0140381,0.00213623
18,4,0.0585938,0.0372314,0.0198364,-0.000915527,0.0308228,0.0286865,0.0375366,0.0588989,0.0180054,0.0109863,0.0302124,-0.000610352,0.0280762
19,0,0.00915527,0.0131226,0.0396729,0.0253296,0.0177002,0.0390625,0.027771,0.0271606,0.0320435,0.0125122,-0.027771,0.0112915,0.0137329
19,1,0.0152588,0.0140381,0.0222778,0.0430298,0.0405884,0.0308228,0.0131226,-0.0680542,0.020752,0.00762939,-0.0494385,0.0363159,0.0396729
19,2,0.0115967,0.0357056,0.0152588,0.0302124,0.0247192,0.0201416,0.0137329,-0.19043,0.0164795,0.0198364,-0.0128174,-0.0134277,0.0201416
19,3,0.0640869,0.0369263,0.027771,0.032959,0.0161743,0.0366211,0.0494385,-0.437012,0.0183105,0.0161743,-0.00915527,0.00793457,0.0213623
19,4,0.0192261,0.0262451,0.0604248,0.0366211,0.0311279,0.0546265,0.0228882,-0.765686,0.0128174,0.0152588,-0.0201416,0.0167847,0.0357056
20,0,0.0186157,-0.00579834,0.0180054,0.015564,0.0222778,0.0485229,0.0189209,-0.570068,0.00854492,0.0717163,-0.0109863,0.0192261,0.0311279
20,1,0.0146484,0.0143433,0.0134277,0.0317383,0.0286865,0.0421143,0.00854492,-0.762939,0.0259399,-0.00488281,-0.0152588,0.0125122,0.0274658
20,2,0.0106812,0.0314331,0.0299072,0.03479,0.027771,0.0250244,0.0735474,-0.765686,0.00549316,0.0668335,-0.00732422,0.012207,0.0500488
20,3,0.00396729,0.0222778,0.0201416,0.0128174,0.0460815,0.0405884,-0.0134277,-0.599365,0.0177002,-0.0247192,0.0128174,0.0137329,-0.0228882
20,4,0.0265503,0.0238037,0.0100708,0.0140381,0.0311279,0.0234985,-0.00152588,-0.0210571,-0.0286865,0.0314331,-0.0100708,-0.0338745,0.0296021
21,0,0.00610352,0.00701904,0.0256348,-0.00915527,0.0201416,0.0332642,0.0280762,0.699768,0.00366211,0.0201416,-0.0106812,0.0274658,0.0259399
21,1,0.0213623,0.010376,-0.0393677,0.0494385,0.0274658,0.0305176,0.0146484,0.022583,0.00671387,0.00396729,-0.0180054,0.0238037,0.022583
21,2,0.0158691,0.0158691,0.0234985,0.0408936,0.00762939,0.0323486,0.0183105,0.488586,0.0271606,0.0210571,-0.022583,0.0134277,0.0308228
21,3,0.0149536,-0.00579834,0.0134277,0.0268555,0.0222778,0.0247192,0.0338745,-0.550232,0.0137329,0.0170898,-0.0180054,0.0186157,0.0189209
21,4,0.0253296,0.0286865,0.0292969,0.0341797,0.00793457,0.0216675,0.0253296,-0.489197,0.00976562,0.0201416,0.00549316,0.0158691,0.0234985
22,0,0.0143433,0.0631714,0.012207,0.0317383,0.0302124,0.032959,0.0598145,-0.778503,0.00793457,0.0167847,-0.0216675,0.0100708,0.0292969
22,1,0.0271606,0.00366211,0.0567627,0.0259399,0.0250244,0.0402832,0.0311279,-0.770874,0.0180054,0.0268555,-0.0299072,-0.00732422,0.0222778
22,2,0.010376,-0.0323486,0.0256348,0.0332642,0.0302124,0.0296021,0.0271606,-0.960693,0.0228882,0.015564,-0.027771,0.0210571,0.0195312
22,3,0.0198364,0.0241089,-0.0308228,0.0231934,0.0302124,0.0170898,0.00488281,-1.08093,0.0177002,0.0189209,-0.0222778,0.0167847,0.0262451
22,4,0.0115967,0.000610352,0.0222778,0.0686646,0.0350952,0.0479126,-0.0161743,-0.839844,0.015564,0.0299072,-0.017395,-0.0088501,0.017395
23,0,-0.00427246,0.0192261,0.0170898,0.0299072,0.0442505,0.0210571,0.0247192,-0.959778,0.0213623,0.0198364,-0.012207,0.0253296,0.0204468
23,1,0.0201416,0.039978,0.0195312,0.0119019,-0.0158691,0.017395,0.020752,-1.08704,0.0231934,0.0292969,-0.0140381,0.0195312,0.00244141
23,2,0.0149536,0.0134277,0.0146484,0.0189209,0.0259399,0.0149536,0.0332642,-0.907593,0.03479,0.0195312,-0.0344849,0.0445557,0.0125122
23,3,0.00915527,0.00396729,0.0189209,0.0210571,0.0354004,0.0357056,0.0186157,-0.722046,0.0250244,0.0210571,-0.0466919,-0.0170898,0.0192261
23,4,-0.00579834,0.0186157,0.0219727,0.0131226,0.0396729,0.0314331,0.0262451,-0.81543,0.0167847,0.00183105,-0.0216675,0.0259399,0.0558472
24,0,0.0112915,0.00152588,-0.0177002,0.0216675,0.0344849,0.0228882,0.0241089,-0.873718,0.043335,0.0308228,-0.0137329,0.00640869,0.00732422
24,1,-0.000915527,0.00549316,0.022583,0.0256348,0.0241089,0.0332642,0.0259399,-0.878601,0.0234985,0.0216675,-0.0299072,0.00671387,0.0152588
24,2,0.017395,0.0131226,0.022583,0.0201416,0.0274658,0.03479,0.0457764,-0.807495,0.0238037,-0.0012207,-0.027771,0.0149536,0.0378418
24,3,0.0177002,0.010376,0.0140381,0.0286865,0.0387573,0.0238037,0.0183105,-0.507507,0.0262451,0.0128174,-0.0198364,0.00793457,0.0119019
24,4,0.0421143,0.0131226,0.0140381,0.0115967,0.0265503,0.0253296,0.0350952,-0.584717,0.0286865,0.00823975,-0.0192261,0.0201416,0.0180054
25,0,0.0186157,0.0231934,0.0088501,0.0219727,0.0292969,0.0189209,0.0222778,-0.614929,0.0332642,0.0405884,-0.0146484,0.0152588,-0.00152588
25,1,0.0219727,0.0119019,0.015564,0.0491333,0.0317383,0.0216675,0.0289917,-0.666809,0.0158691,0.00793457,-0.0088501,0.022583,0.0143433
25,2,0.0341797,0.00396729,0.00793457,0.010376,0.0274658,0.0665283,0.0357056,-1.05682,0.0775146,-0.00518799,-0.0143433,0.0308228,0.0219727
25,3,0.00854492,-0.0115967,0.00396729,0.0143433,0.0198364,0.0119019,0.0222778,-0.889282,0.0222778,0.0311279,-0.0119019,0.00579834,-0.0125122
25,4,0.015564,0.0350952,0.010376,0.0125122,0.0439453,0.0299072,0.0305176,-0.712585,0.0454712,0.0192261,-0.0152588,-0.0012207,0.0112915
26,0,0.0350952,0.0131226,0.0222778,0.0250244,0.0100708,0.0427246,0.0344849,-0.916748,0.0341797,0.0119019,0.00823975,0.0167847,0.0161743
26,1,0.0186157,0.0198364,0.00854492,0.0152588,0.0427246,0.0317383,0.0360107,-0.858459,0.00823975,0.0219727,-0.0241089,0.00488281,0.0125122
26,2,0.0231934,0.0177002,0.012207,0.0280762,0.0253296,0.0354004,0.0421143,-0.634766,0.0308228,0.0247192,-0.0250244,0.0491333,0.0195312
26,3,0.015564,0.0177002,0.0128174,0.00152588,0.0308228,0.0256348,0.043335,-0.601501,0.0256348,0.00427246,0.0140381,0.0140381,0.0167847
26,4,0.0299072,0.0128174,0.0354004,0.012207,0.0289917,0.0302124,0.0332642,-0.625,0.0204468,-0.00152588,-0.0198364,0.0112915,-0.0128174
27,0,0.0177002,0.0189209,0.0186157,0.00640869,0.0250244,0.00274658,-0.0152588,-1.90765,0.0357056,0.0692749,-0.0259399,0.0213623,0.0131226
27,1,0.010376,0.0140381,0.0637817,0.0164795,0.0253296,-0.0311279,0.0250244,-2.6413,0.062561,0.0183105,-0.0274658,0.017395,0.000915527
27,2,0.0244141,0.0238037,0.0134277,0.0131226,0.0112915,0.0177002,0.0344849,-2.547,0.0305176,0.0180054,-0.0289917,0.015564,0.0201416
27,3,0.0228882,0.0238037,0.0134277,0.00671387,0.0494385,0.0317383,0.0354004,-2.47467,0.032959,0.0100708,-0.020752,0.0250244,0.0125122
27,4,0.0146484,0.0582886,0.0161743,0.00976562,0.0350952,0.0320435,0.0402832,-2.3819,0.0253296,0.0216675,-0.0283813,0.0222778,0.00579834
28,0,0.00793457,0.0256348,0.0598145,0.0137329,0.0302124,0.0247192,0.0109863,-2.30164,0.022583,0.0164795,-0.0177002,0.0195312,-0.0106812
28,1,0.0158691,0.0701904,0.0195312,0.00976562,0.00183105,0.0259399,0.022583,-2.25281,0.0164795,0.0164795,-0.00640869,0.0100708,-0.00183105
28,2,-0.0119019,0.00396729,0.071106,0.0299072,0.0253296,-0.0262451,0.045166,-2.1524,0.0317383,0.0088501,-0.0137329,0.0183105,-0.000915527
28,3,0.0183105,0.00427246,0.0427246,0.0112915,0.0357056,0.00640869,0.0265503,-2.08221,0.0262451,0.0167847,-0.0186157,0.0137329,0.0238037
28,4,0.0180054,0.00396729,-0.043335,0.00762939,0.039978,-0.0445557,0.0378418,-2.02209,0.0305176,0.0292969,-0.0183105,0.0158691,0.0265503
29,0,0.0320435,0.0161743,0.00915527,0.0253296,0.0195312,0.0265503,0.0152588,-1.93542,0.0363159,0.0308228,-0.0195312,0.0259399,0.0112915
29,1,0.00488281,0.0653076,0.0274658,0.00915527,-0.0161743,-0.00823975,0.0344849,-1.87469,0.0128174,-0.00549316,-0.0161743,0.00762939,0.0189209
29,2,0.0247192,0.0125122,0.0158691,-0.0250244,0.0253296,0.0244141,0.0302124,-1.79199,0.0311279,0.0204468,-0.0213623,0.00946045,0.00549316
29,3,0.0164795,0.0186157,0.0128174,0.00427246,0.022583,0.043335,0.0500488,-1.75751,0.038147,-0.00762939,-0.0183105,-0.00823975,0.022583
29,4,-0.0350952,0.0088501,0.027771,-0.0201416,0.0241089,0.0253296,-0.0125122,-1.70105,0.0317383,0.0253296,-0.0518799,0.00396729,0.0463867
30,0,0.0134277,0.00762939,0.0216675,0.0128174,0.0308228,0.0280762,0.0283813,-1.61896,0.0338745,0.020752,0.00213623,0.0195312,0.00305176
30,1,0.0170898,-0.00152588,0.0262451,0.0180054,0.0152588,0.0308228,0.0408936,-0.570068,0.0332642,0.0146484,-0.0686646,0.0268555,-0.000610352
30,2,0.0219727,0.0161743,0.00823975,0.0189209,0.0283813,0.0115967,0.0253296,0.35675,0.0344849,0.00823975,-0.0582886,0.0506592,0.0231934
30,3,0.0161743,-0.0405884,0.0146484,0.0106812,-0.0192261,0.027771,0.0241089,-0.679932,0.0247192,0.0195312,-0.0149536,0.00854492,0.0164795
30,4,-0.0247192,0.0106812,0.00976562,-0.0125122,0.0100708,0.0332642,0.0335693,-0.680847,0.0424194,0.0241089,-0.0140381,0.0137329,0.00701904
31,0,0.0204468,0.0201416,0.00427246,0.00518799,0.0128174,0.0939941,0.0335693,0.227661,0.0436401,0.0180054,-0.0241089,-0.000915527,0.00915527
31,1,0.0088501,0.0286865,0.0204468,0.0335693,0.0195312,0.0354004,0.0140381,0.258789,0.0335693,-0.0262451,-0.0296021,0.0244141,0.06073
31,2,0.0195312,0.0195312,0.00732422,0.0204468,0.0231934,0.0408936,0.0286865,-0.444336,0.0286865,0.0335693,-0.0222778,0.020752,0.0222778
31,3,0.0161743,0.0177002,0.0140381,0.043335,0.0244141,0.022583,-0.0210571,-0.470581,0.0259399,0.0500488,-0.0469971,0.0161743,0.0326538
31,4,0.0088501,0.0201416,0.00793457,-0.012207,0.0375366,0.0106812,0.0326538,-0.4599,0.0375366,0.0222778,-0.0177002,0.0186157,0.0210571
32,0,0.00915527,-0.0012207,-0.0100708,0.0146484,0.0683594,0.0192261,0.0268555,-0.444946,0.0289917,0.000915527,-0.0234985,0.00152588,0.0265503
32,1,0.0201416,0.00640869,0.0100708,0.0198364,0.0253296,0.000915527,0.0338745,-0.43457,0.0732422,0.0198364,-0.022583,0.06073,0.0332642
32,2,0.00823975,0.0244141,0.0100708,0.017395,0.0125122,0.0189209,0.0274658,-0.422974,0.020752,0.0274658,-0.0186157,0.0192261,0.0253296
32,3,0.0180054,0.0195312,0.0143433,0.00762939,0.0100708,0.0546265,0.0280762,-0.404053,0.0512695,0.000610352,-0.0253296,0.0128174,0.0137329
32,4,0.0268555,-0.0131226,0.00488281,0.00946045,0.022583,0.0247192,0.0286865,-0.397644,0.03479,0.0158691,-0.0280762,0.0158691,0.0814819
33,0,0.0390625,0.0234985,0.00701904,0.0265503,0.0180054,0.0210571,-0.00213623,-0.392456,-0.00793457,0.0311279,-0.03479,0.0137329,0.0189209
33,1,0.0143433,0.0311279,0.0292969,0.0152588,0.0256348,0.0363159,0.0308228,1.22101,0.0384521,0.0289917,-0.0280762,0.0146484,0.015564
33,2,0.0186157,0.0210571,0.00671387,0.015564,0.00335693,0.0253296,0.0354004,2.47131,0.0299072,0.0177002,-0.0296021,0.0250244,0.0189209
33,3,0.00335693,0.0109863,0.022583,-0.0195312,0.0192261,0.0369263,0.0292969,3.32184,0.0292969,0.0219727,-0.0234985,0.0140381,0.0143433
33,4,0.0204468,-0.000915527,0.00946045,0.0137329,0.0299072,0.020752,0.0415039,3.3136,0.0421143,0.0219727,-0.0265503,0.0119019,0.0320435
34,0,0.0125122,0.0167847,0.00213623,0.00701904,0.0405884,0.0305176,0.0213623,3.31787,0.03479,0.0396729,-0.0366211,0.00640869,0.017395
34,1,0.0585938,0.0164795,0.00610352,0.0338745,0.0210571,0.0308228,0.0320435,3.30719,0.038147,0.0201416,-0.0308228,0.0112915,0.00640869
34,2,0.0170898,0.0152588,0.0228882,0.0170898,0.0372314,0.00915527,0.0238037,3.34076,0.0189209,0.0143433,0.0106812,0.0292969,-0.015564
34,3,0.0311279,0.0164795,0.0167847,0.0222778,0.0299072,0.0314331,0.0344849,3.30444,0.0405884,0.0271606,-0.0250244,0.0161743,0.020752
34,4,0.0201416,0.0170898,0.0311279,0.032959,0.020752,0.0396729,0.0280762,3.29712,0.0341797,0.0201416,-0.0311279,0.0109863,0.0170898
35,0,0.0250244,0.0250244,0.027771,0.0320435,0.00366211,0.0268555,0.039978,3.30658,0.0350952,0.0637817,-0.0234985,0.0222778,0.00518799
35,1,0.0112915,0.0125122,0.0177002,0.0198364,0.012207,-0.0109863,0.0311279,3.30658,0.00396729,0.0210571,-0.0344849,0.022583,0.0201416
35,2,0.0350952,0.0222778,0.0231934,0.0369263,0.0177002,0.0250244,0.0238037,3.26202,0.0415039,0.00976562,-0.020752,0.0158691,-0.0128174
35,3,0.0146484,0.0613403,-0.00335693,0.0210571,-0.0372314,0.00701904,0.0302124,1.68365,0.0466919,0.0161743,-0.0265503,0.0238037,0.00518799
35,4,0.0137329,0.00640869,0.00488281,0.0204468,0.0317383,0.027771,0.0161743,0.914612,0.0283813,0.0210571,-0.0289917,0.0247192,0.00518799
36,0,0.0344849,0.0128174,0.0180054,0.0857544,0.0271606,0.0134277,-0.000915527,2.52747,0.0387573,0.032959,-0.0473022,0.0231934,0.0418091
36,1,0.0326538,0.0201416,0.00640869,0.00427246,0.0665283,0.0119019,0.0238037,2.7121,0.0439453,0.0418091,-0.0100708,0.03479,0.0250244
36,2,0.0271606,0.0463867,0.0100708,0.0115967,-0.00427246,0.0274658,0.010376,1.19446,0.0344849,0.0167847,-0.0283813,0,0.0457764
36,3,0.00396729,0.0216675,0.0152588,0.0628662,0.0222778,0.0253296,0.0473022,2.15363,0.0289917,0.00152588,-0.0180054,0.0299072,0.0430298
36,4,0.0250244,0.0219727,0.0128174,0.0112915,0.0128174,0.020752,0.0170898,1.90613,0.00366211,0.0405884,-0.0314331,0.0823975,0.00152588
37,0,0.0201416,0.0305176,-0.0167847,0.0250244,0.00396729,0.0241089,0.0186157,1.80206,0.00976562,0.017395,-0.032959,0.022583,0.0167847
37,1,0.0292969,0.045166,0.0234985,0.0274658,-0.00335693,0.0088501,0.0213623,1.64978,0.0262451,0.0247192,-0.0369263,0.0271606,0.017395
37,2,0.0323486,0.0326538,0.0299072,0.00732422,0.0177002,0.0283813,0.0296021,-0.418091,0.0424194,0.0418091,-0.0299072,0.0372314,0.0299072
37,3,0.0296021,0.0317383,-0.00335693,0.015564,0.00701904,0.00396729,0.0280762,0.747375,0.0482178,0.0262451,-0.0308228,0.0308228,0.032959
37,4,0.0363159,0.0198364,0.0234985,0.0314331,-0.0088501,0.0152588,0.0244141,-0.188904,0.0241089,0.0311279,-0.0344849,0.0372314,0.0161743
38,0,0.0152588,0.0259399,0.0189209,0.00549316,-0.0106812,0.0238037,0.0439453,-1.9397,0.0299072,0.0463867,-0.0250244,0.0238037,0.0140381
38,1,0.0244141,0.0192261,0.0228882,0.00946045,0.0149536,0.00274658,0.0259399,0.0271606,0.0158691,0.0271606,-0.027771,0.0369263,0.0283813
38,2,0.0192261,0.0387573,0.0299072,0.0283813,0.00305176,0.0115967,0.0289917,-2.18109,0.0314331,-0.0296021,-0.043335,0.0143433,-0.0335693
38,3,0.0161743,0.0210571,0.0158691,-0.0100708,0.0134277,0.0137329,0.0366211,0.205383,0.0183105,0.0341797,-0.0595093,0.00335693,0.0140381
38,4,0.0372314,0.0308228,-0.0012207,-0.0454712,0.0216675,0.0234985,0.0253296,1.97235,0.0311279,0.0378418,-0.0238037,0.0222778,0.0369263
39,0,0.0131226,0.0119019,0.0195312,-0.0216675,0.0195312,0.0210571,-0.0238037,2.08069,0.0280762,-0.00183105,-0.020752,0.0268555,0.00518799
39,1,0.0350952,0.0241089,0.0372314,0.00244141,0.0262451,0.0234985,0.0198364,1.987,0.022583,0.0274658,-0.0323486,0.0286865,0.0210571
39,2,0.0296021,0.032959,0.00488281,0.0134277,0.0186157,0.022583,0.0204468,1.29639,0.0271606,0.0115967,-0.0375366,0.0488281,0.0320435
39,3,0.0228882,0.0466919,0.012207,0.00762939,0.00366211,-0.0213623,0.0256348,1.13159,0.0268555,0.0317383,-0.027771,-0.000610352,0.00579834
39,4,0.0390625,0.0219727,0.0146484,0.00793457,-0.00579834,0.0128174,0.0256348,0.976562,0.0332642,0.0323486,-0.0283813,0.039978,0.00396729
40,0,0.0268555,0.0216675,0.0283813,-0.00335693,0.0128174,0.0354004,0.0271606,0.983887,0.0305176,0.017395,-0.0250244,0.0357056,0.00793457
40,1,0.0125122,0.0210571,0.0204468,0.0198364,0.0152588,0.0234985,-0.00549316,0.188904,0.0302124,0.0469971,-0.0354004,0.0390625,0.0415039
40,2,0.0149536,0.0274658,0.0192261,0.032959,0.0186157,0.00701904,0.0274658,0.0561523,0.0311279,0.0396729,-0.0222778,0.0320435,0.0286865
40,3,0.0396729,0.00274658,0.0161743,0.0326538,0.0442505,0.0219727,0.0198364,-0.798035,0.0286865,0.00488281,-0.0375366,0.0149536,0.0106812
40,4,0.0244141,0.0161743,0.00823975,0.0387573,0.00305176,0.00396729,0.0128174,-2.75269,0.0408936,0.0219727,-0.0338745,0.0396729,0.0201416
41,0,0.0189209,0.03479,0.0305176,0.0131226,0.0213623,0.0125122,0.0244141,-0.328369,0.0317383,0.0308228,-0.0234985,0.00793457,0.0296021
41,1,0.0244141,0.0238037,0.0543213,0.015564,0.0222778,-0.0369263,0.0134277,-3.18146,0.0238037,0.0198364,-0.0320435,0.0323486,0.0500488
41,2,0.0268555,0.0134277,0.00823975,0.0146484,-0.0115967,0.0167847,0.0234985,-3.22083,0.0384521,0.0177002,-0.0314331,0.00213623,0.0292969
41,3,0.00274658,0.0158691,0.0183105,0.0595093,0.00701904,0.00610352,0.000610352,-3.17078,0.0234985,0.0180054,-0.0366211,0.0253296,-0.0271606
41,4,0.0790405,0.022583,0.0222778,0.015564,0.0216675,0.0177002,0.0265503,-1.62018,0.0234985,0.0296021,-0.0311279,0.032959,0.0158691
42,0,0.0305176,0.0253296,0.020752,0.0222778,0.00396729,-0.0115967,0.0219727,-1.22314,0.0265503,0.0317383,-0.0292969,0.0509644,0.0256348
42,1,0.0463867,0.03479,0.0140381,0.0161743,0.012207,0.0128174,0.0195312,0.0601196,0.0308228,0.0253296,0.0204468,0.0219727,0.0140381
42,2,0.0241089,-0.027771,0.0195312,0.0256348,-0.0125122,0.0115967,0.0238037,1.81793,0.0152588,0.0167847,-0.0314331,0.03479,0.0283813
42,3,0.0363159,0.0265503,0.0219727,0.0372314,0.0112915,0.015564,0.0201416,1.6507,0.0289917,0.0186157,-0.0286865,0.00701904,0.03479
42,4,0.0268555,0.0326538,0.00946045,0.0115967,-0.000610352,0.00244141,0.0149536,1.64215,0.0268555,0.0238037,-0.0140381,0.0177002,0.0271606
43,0,0.0234985,0.0338745,0.0204468,0.0149536,0.0134277,0.00732422,0.0259399,1.49292,0.0112915,-0.0286865,-0.0308228,0.0234985,0.032959
43,1,0.038147,0.0256348,0.0231934,0.0271606,0.0271606,0.00762939,0.0137329,0.494385,0.0195312,0.0317383,-0.0274658,0.0396729,0.0228882
43,2,0.0186157,0.0314331,0.0302124,0.020752,0.0186157,0.0280762,0.0183105,0.215454,0.0128174,0.0289917,-0.0360107,0.00579834,0.0308228
43,3,0.0326538,0.0216675,0.00244141,0.0241089,0.0119019,0.0390625,0.0219727,-0.549622,-0.00213623,0.0204468,-0.0332642,0.0546265,0.0338745
43,4,0.038147,0.0378418,0.0262451,0.012207,0.0195312,-0.0146484,0.0238037,-1.633,0.0646973,0.0244141,-0.0238037,0.0296021,0.0442505
44,0,0.100403,0.03479,0.0286865,-0.0250244,0.0216675,0.000915527,0.00274658,-0.698242,0.0222778,0.0610352,-0.0543213,0.0430298,0.0421143
44,1,0.0436401,0.0241089,0.00671387,0.0256348,0.0271606,0.0390625,0.0137329,-1.10657,0.022583,0.010376,-0.0326538,0.0952148,0.0396729
44,2,0.0357056,0.0299072,0.0204468,0.0369263,0.010376,0.0106812,0.000305176,-2.81189,0.0195312,0.0585938,-0.0338745,0.0241089,0.0308228
44,3,0.0372314,0.0216675,0.0234985,0.0271606,0.00518799,0.00579834,0.0112915,-2.95105,0.0247192,0.0262451,-0.0558472,0.0292969,0.0238037
44,4,0.0375366,0.0372314,0.0112915,0.0335693,0.0161743,0.0180054,0.0204468,-2.74292,0.0506592,0.0222778,-0.0335693,0.0396729,0.0323486
45,0,0.0415039,0.0231934,-0.0268555,0.0140381,0.0195312,0.0802612,0.0292969,0.713501,-0.0384521,0.0216675,-0.0180054,0.0302124,0.020752
45,1,0.0332642,-0.0234985,0.0274658,0.020752,0.0424194,0.0265503,0.0363159,-2.10388,0.0234985,0.0234985,-0.0253296,0.012207,0.0222778
45,2,0.032959,0.0177002,0.022583,0.0292969,0.0216675,0.0527954,0.0247192,-2.76947,0.0201416,0.0302124,-0.039978,0.0274658,0.020752
45,3,0.00488281,0.0241089,0.0192261,0.0213623,0.012207,0.012207,0.0238037,-2.67181,0.0222778,0.0195312,-0.0518799,0.0265503,0.0164795
45,4,0.0241089,0.0265503,0.0183105,0.022583,0.0201416,0.0100708,0.0137329,-2.58606,0.027771,0.0283813,-0.0262451,0.0335693,0.0216675
46,0,0.0454712,0.0320435,0.0231934,0.0137329,0.00640869,0.0088501,0.00549316,-2.43591,0.0186157,0.0509644,-0.0372314,0.0137329,0.0195312
46,1,0.0302124,0.0186157,0.0238037,0.0976562,0.0354004,0.0177002,0.0326538,-2.17041,0.0201416,0.017395,-0.0308228,0.0274658,0.0216675
46,2,0.0323486,0.0219727,0.0183105,0.00549316,0.0234985,0.0366211,0.0238037,-1.87775,0.0265503,0.0177002,-0.0286865,-0.00152588,0.0201416
46,3,0.0302124,0.0460815,0.0274658,0.0280762,0.0195312,0.010376,0.015564,-1.63635,0.0106812,0.020752,-0.00732422,0.0231934,0.0186157
46,4,0.027771,0.0204468,0.0436401,0.0296021,0.0274658,0.0411987,0.0228882,-1.37695,0.0177002,0.0262451,-0.0256348,0.0250244,0.0131226
47,0,0.0262451,0.0274658,0.0213623,0.0286865,0.0216675,0.0222778,0.0192261,-1.16089,0.0253296,0.0228882,-0.0360107,0.0210571,0.0454712
47,1,0.0106812,0.0280762,0.0186157,0.0436401,0.0128174,0.0146484,0.0244141,-0.947876,0.00854492,0.0250244,-0.0408936,0.0213623,0.0991821
47,2,0.0274658,0.0308228,0.0335693,0.0204468,0.0283813,0.0241089,0.0238037,-0.756226,0.0210571,0.0216675,-0.0271606,0.0469971,0.0372314
47,3,0.0250244,0.00396729,0.0415039,0.017395,-0.0088501,-0.00152588,0.0177002,-0.609436,0.0204468,0.0250244,-0.0323486,0.022583,0.0384521
47,4,0.0250244,0.0439453,0.0283813,0.0341797,0.0146484,0.0125122,0.0198364,-0.447998,0.0268555,0.0256348,-0.032959,-0.0143433,0.0378418
48,0,0.0280762,0.0161743,0.0326538,0.00457764,0.0170898,0.0131226,0.0228882,-0.295105,0.0402832,0.0250244,-0.0317383,-0.0531006,0.0405884
48,1,0.00457764,0.027771,0.0274658,0.0192261,0.0231934,0.0131226,0.0231934,-0.163574,0.0247192,0.00549316,-0.0360107,0.0314331,0.0265503
48,2,0.0234985,0.0680542,0.055542,0.0375366,0.043335,0.00244141,0.0238037,-0.0732422,0.0323486,0.027771,-0.032959,0.0170898,0.00671387
48,3,0.0357056,0.0146484,0.03479,0.0216675,0.00549316,0.0152588,0.0234985,0.0384521,0.00640869,0.0531006,-0.032959,0.0140381,0.0698853
48,4,-0.00915527,0.0396729,0.0317383,0.0204468,0.0326538,0.0119019,0.0283813,0.135193,0.0262451,0.0238037,-0.0222778,0.0210571,0.0384521
49,0,-0.015564,0.0170898,0.0430298,0.0393677,0.0271606,0.0244141,-0.0296021,0.227356,-0.00396729,0.0683594,-0.0247192,0.0250244,-0.0390625
49,1,0.0259399,0.0262451,0.0384521,0.0183105,0.0286865,0.0201416,0.0244141,0.290222,0.0198364,0.0286865,-0.0268555,0.0195312,0.0283813
49,2,0.0308228,0.0210571,0.0256348,0.0421143,-0.0140381,0.0152588,-0.00152588,0.364685,0.0161743,0.027771,-0.0231934,0.0292969,0.0314331
49,3,0.0350952,0.0338745,0.0271606,0.0177002,0.0137329,0.0610352,0.0201416,0.407104,0.0128174,0.0228882,-0.0308228,0.0354004,0.0363159
49,4,0.050354,0.0326538,0.0259399,0.0769043,0,0.0259399,0.0164795,0.500488,0.0170898,0.0357056,-0.0302124,0.0405884,0.0305176
50,0,0.0421143,0.0445557,-0.0189209,0.0265503,0.0112915,0.000610352,0.0149536,0.537109,0.0622559,0.0289917,-0.0283813,0.0848389,0.0466919
50,1,0.0268555,0.0292969,0.0198364,0.0250244,0.015564,-0.0204468,-0.0234985,0.561829,0.0164795,0.0408936,-0.0360107,0.0320435,0.0396729
50,2,0.0335693,0.0292969,0.0222778,0.00854492,0.0292969,0.0314331,0.0247192,0.591125,0.0292969,0.0375366,-0.0204468,0.0256348,0.0128174
50,3,0.017395,0.0259399,0.0134277,0.0271606,0.0131226,0.0192261,0.0372314,0.630798,0.0210571,0.00915527,-0.0262451,0.0402832,-0.0189209
50,4,0.0357056,0.0442505,0.0311279,0.0323486,0.0234985,0.0338745,0.0360107,0.653992,0.0241089,0.0387573,-0.0332642,0.0210571,0.0448608
51,0,0.0384521,0.0247192,0.0161743,0.00579834,0.0143433,0.0296021,0.0201416,0.690002,-0.0183105,0.020752,-0.0253296,-0.017395,0.0372314
51,1,0.0320435,0.0189209,0.0216675,0.0289917,0.0106812,0.0201416,0.00579834,0.690613,0.0323486,0.0112915,-0.0350952,0.0180054,0.0466919
51,2,0.0411987,0.0238037,-0.00457764,0.0128174,0.0402832,0.0234985,0.0180054,0.716553,0.0152588,0.0228882,-0.0286865,0.027771,0.0167847
51,3,0.0183105,0.0842285,0.0411987,0.043335,0.0692749,0.0250244,0.0421143,0.726929,0.0186157,0.0228882,-0.020752,0.0299072,0.0387573
51,4,0.0350952,0.0341797,0.0540161,0.0234985,0.022583,0.00274658,0.0167847,0.754089,-0.00946045,0.03479,-0.0250244,0.032959,0.0253296
52,0,0.032959,0.0708008,0.0292969,0.0250244,0.020752,0.0222778,0.00732422,0.741882,0.012207,0.0158691,-0.0286865,0.0961304,0.0408936
52,1,0.0180054,0.000610352,0.0292969,0.0268555,0.0204468,0.00457764,0.0299072,0.793762,-0.00854492,0.0302124,-0.0326538,0.0497437,0.0247192
52,2,0.0216675,0.0210571,0.0369263,0.0216675,0.0241089,0.00152588,0.00488281,1.04248,0.0350952,0.0201416,-0.0289917,0.0115967,0.0305176
52,3,0.0296021,0.0390625,0.0250244,0.017395,0.0405884,0.0280762,0.017395,0.809326,0.0186157,0.0320435,-0.00305176,0.0128174,0.0354004
52,4,0.039978,0.027771,0.0231934,0.0271606,0.0234985,0.0170898,0.0180054,0.809326,0.0149536,0.0588989,-0.0234985,0.0305176,0.00915527
53,0,-0.0167847,0.0299072,0.0283813,0.0540161,0.0137329,0.0262451,0.0323486,0.713196,0.00671387,0.0244141,-0.0192261,0.0268555,0.0271606
53,1,0.0253296,0.0241089,0.0198364,0.022583,0.0201416,0.0323486,0.012207,0.738525,0.00671387,0.0216675,-0.0299072,0.0357056,0.00427246
53,2,0.043335,0.022583,0.0189209,0.0177002,0.0183105,0.0317383,0.0158691,0.726929,0.0357056,0.0405884,-0.0234985,0.0241089,0.0228882
53,3,0.0302124,0.0332642,0.0357056,0.027771,0.0408936,0.0125122,0.0244141,0.662231,0.0341797,0.0100708,-0.00793457,0.0402832,0.0384521
53,4,0.0140381,0.0384521,0.0338745,0.0332642,0.0350952,0.022583,0.0119019,0.719604,0.0708008,0.017395,-0.0265503,-0.0177002,0.0195312
54,0,0.0201416,0.0323486,0.0216675,0.0167847,0.0363159,0.0149536,0.0262451,0.69519,0.00427246,0.0152588,-0.0302124,0.0317383,0.0332642
54,1,0.0161743,0.0326538,0.0360107,0.0332642,0.0512695,0.0357056,0.0222778,0.708923,0.0100708,0.015564,-0.0418091,0.0146484,0.0320435
54,2,0.03479,0.0280762,0.0408936,0.0228882,0.0219727,0.0192261,0.0106812,0.913696,0.0216675,0.0100708,-0.0314331,0.0183105,0.0161743
54,3,0.0274658,0.0256348,0.0299072,0.0195312,0.0302124,0.0201416,0.0500488,0.706177,0.0128174,-0.0320435,-0.0213623,0.0271606,0.0244141
54,4,0.0234985,0.0299072,0.0146484,0.0164795,0.00701904,0.012207,0.015564,0.659485,0.0170898,0.00732422,-0.00610352,0.017395,0.0180054
55,0,0.015564,0.0247192,-0.020752,0.0323486,0.0216675,-0.0384521,0.0158691,1.14044,-0.0088501,0.0216675,-0.027771,0.0579834,0.0296021
55,1,0.0213623,0.0390625,0.0198364,0.0247192,0.0158691,0.0192261,0.0125122,1.58142,0.0265503,0.0186157,-0.015564,0.00976562,0.0231934
55,2,0.0363159,0.0219727,0.032959,0.0354004,0.0268555,0.0338745,0.0146484,0.645752,0.00488281,0.0244141,-0.0186157,0.0152588,0.0234985
55,3,0.0350952,0.0228882,0.050354,0.0305176,0.0296021,0.0259399,0.0228882,0.588989,0.0756836,0.0216675,-0.022583,-0.010376,0.022583
55,4,0.0537109,0.0454712,0.020752,0.0692749,0.0253296,0.0299072,0.0366211,0.572815,0.0189209,-0.00762939,-0.0192261,0.0164795,-0.000915527
56,0,0.0436401,0.00854492,0.0311279,0.0564575,0.0375366,0.0305176,0.0088501,0.558777,0.0112915,0.0137329,-0.0247192,0.0299072,0.0366211
56,1,0.0186157,0.0799561,0.010376,0.0259399,0.0387573,0.00762939,0.0119019,0.536499,-0.0167847,0.00427246,-0.0158691,0.0357056,0.0369263
56,2,0.015564,0.00671387,0.0317383,0.0411987,-0.0213623,0.0268555,0.0140381,0.545654,0.0210571,0.0183105,-0.0109863,0.03479,0.0247192
56,3,0.0219727,0.000305176,0.0271606,0.027771,0.0698853,0.0369263,0.00335693,0.520935,0.0167847,0.0164795,-0.0222778,0.0186157,0.0289917
56,4,0.0253296,0.0161743,0.0323486,0.0247192,0.0369263,0.0305176,0.0186157,0.513306,-0.00427246,0.017395,-0.00244141,0.0134277,0.0271606
57,0,0.0180054,0.0195312,0.0515747,0.0286865,0.0164795,0.0289917,0.0241089,0.518799,0.0164795,0.010376,-0.0302124,0.0183105,0.0238037
57,1,0.0100708,0.0268555,0.0100708,0.0115967,0.0201416,0.0234985,-0.0180054,0.432739,0.0244141,0.0469971,-0.0177002,0.0286865,0.0167847
57,2,0.0137329,0.0125122,0.0314331,0.0286865,0.0228882,-0.0311279,0.0167847,0.440674,0.0759888,0.010376,-0.0192261,0.0366211,0.032959
57,3,0.0341797,0.0198364,0.0244141,0.0231934,0.0128174,0.0302124,0.0137329,0.44342,0.000915527,0.00915527,-0.0592041,0.0140381,0.0219727
57,4,0.0234985,0.0146484,0.0210571,0.0292969,0.0299072,0.0158691,0.0195312,0.420837,0.00305176,0.0128174,-0.0482178,0.0317383,0.0299072
58,0,0.0161743,0.0366211,0.0262451,0.0387573,0.0311279,0.012207,0.0234985,0.413208,0.020752,0.00915527,-0.00946045,0.0827026,0.0357056
58,1,0.0283813,0.0283813,-0.000915527,0.0390625,0.0231934,0.0180054,0.0143433,0.416565,0.0274658,0,-0.0234985,0.0140381,0.0415039
58,2,0.0210571,0.0344849,0.0323486,0.0305176,0.0219727,0.0582886,0.0296021,0.393677,0.0152588,0.0152588,-0.0244141,0.0204468,0.0238037
58,3,0.0195312,0.0296021,-0.0350952,0.0366211,0.0152588,0.0457764,0.0341797,0.422668,0.0106812,0.00946045,-0.0238037,0.027771,0.0332642
58,4,0.0219727,0.0247192,0.00762939,0.0256348,0.0131226,0.00762939,0.0189209,0.398865,0.0177002,-0.0247192,-0.0222778,0.0241089,0.0335693
59,0,0.0164795,0.0305176,0.00640869,0.0436401,0.0302124,0.0494385,0.0286865,0.565796,0.102539,0.0106812,-0.0305176,-0.00244141,0.032959
59,1,0.0396729,0.0146484,0.0134277,0.0280762,0.00549316,0.0268555,0.0234985,0.507507,0.00274658,0.0152588,-0.0149536,0.0268555,0.0302124
59,2,0.0158691,-0.0241089,0.0289917,0.0396729,0.0582886,0.0164795,0.0201416,0.386963,0.0271606,-0.00152588,-0.0192261,0.0305176,0.0332642
59,3,-0.022583,0.0283813,0.0292969,0.0411987,0.0286865,0.022583,0.0308228,0.336609,-0.00427246,0.00732422,-0.0210571,-0.0100708,0.0183105
59,4,0.0201416,0.0198364,0.0219727,0.0299072,0.0231934,0.0357056,0.0274658,0.334473,0.0167847,0.00976562,-0.00915527,0.0247192,0.0146484
60,0,0.0268555,0.0234985,0.0231934,0.0302124,0.0268555,0.0411987,0.0125122,0.336304,0.0265503,0.0289917,-0.0350952,0.012207,0.0485229
60,1,-0.0289917,0.022583,0.0393677,0.0463867,0.0167847,0.0161743,0.0228882,0.315552,0.015564,0.00396729,-0.0512695,0.0186157,0.0238037
60,2,0.00671387,-0.0222778,0.0189209,0.000915527,-0.0128174,0.0375366,0.0180054,0.318604,0.00640869,0.0164795,-0.0119019,0.0219727,0.0164795
60,3,0.0198364,0.020752,0.0192261,0.0311279,0.032959,0.0222778,0.0219727,0.270691,0.00823975,0.0195312,-0.0527954,0.0164795,0.0201416
60,4,0.0292969,0.0109863,0.0268555,0.0363159,0.0265503,0.0152588,0.0317383,0.320129,0.0238037,0.0125122,-0.0100708,0.00366211,0.0283813
61,0,-0.00366211,0.0115967,0.0250244,-0.0210571,0.0360107,0.0317383,0.00823975,0.303345,0.0143433,-0.0100708,-0.00640869,0.0271606,0.0793457
61,1,0.0234985,0.0128174,0.0576782,0.0332642,0.0222778,0.0308228,0.0335693,0.296631,0.0149536,0.015564,-0.0192261,0.0189209,0.0305176
61,2,0.0109863,0.0149536,0.0244141,0.0140381,0.017395,0.0131226,0.0302124,0.280457,0.00915527,0.0665283,-0.00976562,0.0372314,0.000305176
61,3,0.0259399,0.0369263,0.0265503,0.0360107,0.0234985,0.017395,0.0241089,0.299683,0.0106812,0.0106812,-0.0125122,0.0186157,0.0161743
61,4,0.00366211,0.00823975,0.0204468,0.0134277,0.0363159,0.0448608,0.020752,0.274048,0.0131226,0.0735474,-0.0216675,0.0125122,-0.0198364
62,0,0,0.0210571,0.0158691,0.0390625,0.0390625,-0.000305176,0.0360107,0.260925,0.017395,0.00854492,-0.0125122,0.0143433,0.0247192
62,1,0.0231934,0.00488281,0.0311279,0.038147,0.0668335,0.03479,0.0341797,0.255432,0.0137329,0.00946045,-0.00579834,0.0164795,0.0299072
62,2,0.0283813,0.0128174,0.0189209,0.0326538,0.0201416,0.00549316,0.0424194,0.254211,0.038147,-0.00152588,-0.0112915,0.0088501,0.0210571
62,3,0.0613403,0.0317383,0.0219727,-0.0292969,0.0338745,0.0219727,0.0753784,0.243835,0.0143433,-0.0509644,-0.0402832,0.0262451,0.0289917
62,4,0.0183105,0.0357056,0.0372314,0.0180054,0.0161743,0.0839233,0.0320435,0.238647,-0.00610352,0.0201416,-0.015564,0.017395,0.00762939
63,0,0.0131226,0.0183105,0.0262451,0.0323486,0.0241089,0.027771,0.0350952,0.24353,0.0265503,-0.0280762,-0.00854492,0.0296021,0.00793457
63,1,0.020752,0.017395,0.0180054,0.0253296,0.0231934,0.0296021,0.0170898,0.212097,0,0.010376,-0.0201416,0.0134277,0.0244141
63,2,0.0186157,0.0280762,0.0189209,0.0256348,0.00579834,0.0457764,0.0231934,0.217285,-0.000610352,0.0128174,-0.0216675,0.0183105,0.0280762
63,3,0.0265503,0.0213623,0.0167847,0.020752,0.0292969,0.0378418,0.0210571,0.191956,0.00457764,0.0259399,-0.0543213,0.000610352,0.0250244
63,4,0.00244141,0.00671387,0.0375366,0.0244141,0.0241089,0.0396729,0.03479,0.220337,0.0262451,0.0222778,-0.012207,0.0250244,0.0088501
64,0,0.00793457,-0.0326538,0.0299072,0.0332642,-0.0125122,0.0305176,0.0238037,0.145874,0.0119019,0.00823975,-0.0164795,0.0259399,0.0250244
64,1,0.000610352,0.0131226,0.00854492,0.0332642,0.0262451,0.0231934,0.0244141,0.177612,0.00610352,0.00946045,-0.0195312,0.015564,0.0244141
64,2,0.0234985,0.010376,0.0170898,0.072937,0.0448608,0.0372314,0.0213623,0.190125,0.020752,-0.0128174,-0.0161743,0.00518799,0.0341797
64,3,0.0149536,0.00488281,0.0106812,0.0332642,-0.00427246,0.0341797,0.0271606,0.1828,0.0112915,0.00610352,-0.0473022,0.012207,0.0299072
64,4,-0.017395,0.0186157,0.020752,0.020752,0.0241089,0.0393677,0.0231934,0.192261,0.0109863,0.0112915,-0.0140381,0.0195312,0.0219727
65,0,-0.0283813,0.0280762,0.0350952,0.0363159,0.0454712,0.0210571,0.0747681,0.170898,0.0177002,0.0674438,-0.0317383,0.0241089,0.0479126
65,1,0.0115967,0.00823975,0.022583,0.0375366,0.0280762,0.0360107,0.0360107,0.153503,0.0253296,0.0216675,-0.0262451,0.0164795,0.0265503
65,2,0.0164795,0.0201416,0.0268555,0.0378418,0.0332642,-0.0119019,0.0247192,0.152893,0.00701904,0.0183105,-0.0314331,0.00457764,0.0125122
65,3,0.0180054,0.015564,0.0238037,0.0161743,0.0408936,0.0201416,0.0204468,0.156555,0.0244141,0.0369263,-0.0210571,0.00152588,0.03479
65,4,0.00305176,0.0241089,0.0308228,0.0292969,0.017395,0.050354,0.0241089,0.166321,0.0128174,0.0115967,-0.022583,0.0115967,0.0250244
66,0,-0.00244141,0.0256348,0.0152588,0.0488281,0.0311279,0.0338745,0.0259399,0.138245,0.0222778,0.0289917,-0.0183105,0.0271606,0.0320435
66,1,0.0305176,0.0244141,0.0314331,-0.0320435,0.0341797,0.0344849,0.0201416,0.144958,0.0314331,0.00793457,-0.027771,0.00915527,0.043335
66,2,0.0204468,0.0442505,0.00640869,0.0274658,0.083313,0.0372314,0.0283813,0.136108,0.0177002,0.0234985,-0.0219727,0.010376,0.0238037
66,3,0.0146484,0.0927734,0.0186157,0.0158691,0.017395,0.0250244,0.0320435,0.152588,0.0112915,0.0161743,-0.0115967,0.0115967,0.0271606
66,4,0.0238037,0.0134277,0.0195312,0.0244141,0.0320435,0.0384521,0.017395,0.1297,0.0238037,0.0250244,-0.0299072,0.012207,0.0164795
67,0,0.0253296,0.0192261,0.0210571,0.0164795,0.0296021,0.0128174,0.0308228,0.124817,-0.0146484,0.0201416,-0.0234985,0.0506592,0.00305176
67,1,0.0180054,0.00183105,-0.00793457,0.0250244,0.0332642,0.0326538,0.0305176,0.113525,0.0256348,0.0213623,-0.0213623,0.0195312,0.0738525
67,2,0.0192261,-0.0183105,0.0192261,0.0280762,-0.0366211,0.0369263,0.0396729,0.0811768,0.00671387,-0.00274658,-0.0210571,0.00305176,0.0296021
67,3,0.000915527,0.0219727,0.017395,0.062561,0.0183105,0.0354004,0.0619507,0.104065,-0.0189209,0.0317383,-0.00427246,0.0332642,-0.0274658
67,4,0.0360107,0.0271606,0.0213623,0.0302124,0.0378418,0.0262451,0.0259399,0.119629,0.0164795,0.0262451,-0.0378418,0.0146484,0.0088501
68,0,0.0610352,0.017395,0.00793457,0.0308228,0.0283813,0.0411987,0.0253296,0.104065,0.0189209,-0.0140381,0,0.00915527,0.00396729
68,1,0.022583,0.00305176,0.00488281,0.0299072,0.0228882,0.0479126,0.0338745,0.0949097,0.0201416,0.0305176,-0.0216675,0.0216675,0.0231934
68,2,0.0222778,-0.00946045,0.0250244,0.0177002,-0.0152588,0.0317383,0.0195312,0.0421143,0.0234985,0.0106812,-0.00671387,0.0317383,0.0137329
68,3,0.0158691,0.020752,0.00976562,0.00305176,0.0238037,0.0241089,0.0341797,0.0808716,0.0189209,-0.0125122,-0.0152588,0.0201416,-0.0643921
68,4,0.00854492,0.00915527,0.017395,0.0210571,-0.0115967,0.0326538,0.03479,0.0814819,0.00305176,0.0128174,-0.0204468,0.0158691,0.0189209
69,0,-0.0143433,0.0149536,0.022583,0.00701904,0.0311279,0.0320435,0.055542,0.102234,0.0280762,0.0234985,-0.0308228,0.0140381,0.0112915
69,1,0.0112915,0.0262451,0.0149536,0.0115967,0.0192261,0.0332642,0.0311279,0.0747681,0.0210571,-0.083313,-0.0186157,0.00488281,0.0088501
69,2,0.0112915,0.0244141,-0.0100708,0.0119019,0.0112915,-0.0161743,0.0302124,0.0662231,-0.00854492,0.03479,-0.00732422,0.0241089,0.0195312
69,3,0.0195312,0.0198364,0.00396729,0.0222778,0.0222778,0.0811768,0.0326538,0.0796509,0.050354,0.0357056,-0.0222778,0.0164795,0.0012207
69,4,0.0140381,0.0167847,-0.0561523,0.0195312,0.0234985,0.0088501,0.0488281,0.0674438,0.0280762,0.0320435,-0.0125122,0.0234985,0.0170898
70,0,0.0418091,0.0143433,0.0125122,-0.0201416,0.0119019,0.0396729,-0.00793457,0.0531006,0.015564,0.0311279,-0.010376,0,0.0628662
70,1,0.0280762,0.0183105,0.0152588,0.0112915,0.0311279,0.0228882,0.027771,0.0720215,0.0744629,0.0274658,-0.0231934,0.0534058,0.012207
70,2,0.0354004,0.0222778,0.000305176,-0.0262451,0.0311279,0.0332642,0.0479126,0.0592041,0.0250244,0.0634766,-0.00823975,0.0198364,-0.0088501
70,3,0.0140381,0.0100708,0.0311279,0.0192261,0.0253296,0.0234985,0.0308228,0.0405884,0.0106812,0.0473022,0.0164795,0.022583,0.0198364
70,4,0.00793457,0.0213623,0.00366211,0.0213623,0.0259399,0.0192261,0.0384521,0.0372314,0.0341797,0.0531006,-0.027771,0.020752,0.0158691
71,0,0.0146484,0.0140381,0.0320435,0.022583,0.0146484,-0.00732422,0.0344849,0.0500488,0.0726318,0.0317383,-0.0350952,-0.0292969,0.00213623
71,1,0.0201416,0.000915527,0.0210571,0.0167847,0.0311279,0.0228882,0.0430298,0.0448608,0.0247192,-0.222473,-0.0299072,0.0137329,0.0143433
71,2,0.0189209,0.0204468,-0.0408936,0.0146484,0.0152588,0.0253296,0.0241089,0.0720215,0.0201416,0.0280762,-0.0231934,0.0262451,0.00946045
71,3,0.0192261,0.0177002,0.0146484,0.0222778,0.0152588,0.0112915,0.00793457,0.0537109,0.0198364,0.0482178,-0.043335,0.00244141,0.0164795
71,4,0.0265503,0.00976562,0.0198364,0.0164795,0.0247192,0.0238037,0.0354004,0.0286865,0.00732422,0.0515747,-0.0335693,0.0195312,0.0134277
72,0,0.00579834,0.0125122,0.0109863,0.0265503,0.00396729,0.0299072,0.0430298,0.0427246,0.0271606,0.0445557,-0.03479,0.00488281,0.0167847
72,1,-0.0302124,0.0186157,0.0140381,-0.0238037,0.0335693,0.0460815,0.0463867,0.039978,0.0241089,0.0299072,-0.0357056,0.0012207,-0.000610352
72,2,-0.0283813,0.0112915,-0.000915527,0.00671387,0.00976562,0.0402832,0.0344849,0.0256348,0.0274658,0.0482178,-0.0595093,-0.00427246,0.0216675
72,3,0.0119019,0.0115967,0.017395,0.00946045,0.0125122,0.0271606,0.0360107,0.0128174,0.0338745,0.0341797,-0.0177002,0.00793457,0.010376
72,4,0.0167847,0.0140381,-0.0354004,0.00671387,0.0228882,0.0292969,0.0390625,0.0320435,0.0152588,0.0265503,-0.0247192,0.0125122,0.0180054
73,0,0.015564,0.0201416,0.0234985,0.0131226,0.0585938,0.0177002,0.0259399,0.0170898,-0.00579834,0.0326538,-0.0631714,0.0274658,0.0308228
73,1,0.017395,0.00305176,0.0137329,0.0137329,0.0286865,0.0152588,0.0265503,0.015564,0.0238037,0.0924683,-0.0244141,0.0186157,0.065918
73,2,0.0216675,0.0128174,0.0198364,0.0283813,0.00946045,0.0500488,0.0357056,0.0131226,0.0332642,0.0500488,-0.00946045,0.012207,0.00701904
73,3,0.0183105,0.0204468,0.00488281,0.0228882,0.0253296,0.0100708,0.0271606,0.0234985,0.027771,0.0201416,-0.017395,0.0808716,0.0259399
73,4,0.015564,0.0177002,0.0170898,0.0177002,0.0183105,0.0497437,0.0289917,0.0189209,0.0143433,0.0265503,-0.0088501,0.0222778,0.00427246
74,0,0.0088501,0.0125122,0.0164795,0.0137329,0.022583,0.0341797,0.0262451,0.0180054,-0.0146484,0.0268555,-0.00610352,0.00793457,0.0210571
74,1,0.0302124,0.00518799,0.00152588,0.0140381,0.0289917,0.0427246,0.0320435,0.00732422,0.00610352,0.0457764,-0.012207,0.00518799,0.0274658
74,2,0.0158691,0.0161743,0.0128174,0.0198364,0.00335693,0.0259399,0.015564,0.00701904,0.0186157,0.0366211,-0.0170898,0.0112915,0.0228882
74,3,0.0265503,0.0231934,0.00701904,0.017395,0.00946045,0.0234985,0.0131226,0.012207,0.0219727,-0.0119019,-0.0115967,0.0167847,0.00274658
74,4,0.027771,0.00244141,0.0131226,0.0125122,0.0198364,0.0274658,0.0326538,0.00823975,-0.00366211,0.0308228,-0.0564575,-0.012207,0.00976562
75,0,-0.0192261,0.0125122,0.00579834,0.0619507,0.0250244,0.0177002,-0.00976562,0.00549316,0.0274658,0.0521851,-0.0241089,0.0152588,-0.0415039
75,1,0.0265503,0.0259399,0.0308228,0.00427246,0.0164795,0.0112915,0.0454712,0.0134277,0.0296021,0.0183105,-0.0262451,0,0.0216675
75,2,0.0161743,0.0756836,0.0341797,0.0146484,-0.0292969,0.0521851,0.0228882,0.00183105,0.0228882,0.0204468,-0.0216675,0.00518799,0.0311279
75,3,0.0167847,0.0195312,0.0247192,0.0244141,0.0228882,0.0317383,0.0161743,-0.0366211,0.0305176,0.0317383,-0.00549316,0.0134277,0.00396729
75,4,0.0582886,0.0320435,0.0259399,-0.000610352,0.0314331,0.0292969,-0.0131226,0.000915527,0.0317383,0.0726318,-0.00732422,0.0234985,0.000915527
76,0,0.00274658,0.00823975,0.00671387,0.00335693,0.0204468,0.0378418,0.0265503,0.00549316,0.0448608,0.0268555,-0.0177002,-0.0445557,0.0213623
76,1,0.0112915,0.00762939,0.0170898,0.00701904,0.0180054,0.0152588,0.103149,0.012207,0.0323486,-0.0131226,-0.0238037,0.0128174,0.0167847
76,2,0.0311279,0.0256348,0.0335693,-0.0500488,0.0201416,0.0274658,0.015564,-0.000915527,0.0280762,0.0274658,-0.0244141,0.0247192,0.0378418
76,3,0.0250244,0.0247192,0.00518799,0.0164795,0.00915527,0.0274658,0.0933838,0.00335693,0.0299072,0.0869751,-0.0238037,-0.0119019,-0.00488281
76,4,0.0366211,0.0189209,0.0134277,0.0131226,0.0256348,0.0210571,0.0485229,0,0.0234985,0.0317383,-0.0222778,0.00762939,0.00976562
77,0,0.0335693,0.00518799,0.000915527,0.00854492,0.0167847,0.0552368,0.0305176,-0.00183105,0.0622559,0.0201416,-0.0271606,0.0195312,0.0228882
77,1,0.0265503,0.0274658,0.0198364,0.0109863,0.0564575,0.0366211,0.0192261,0.00549316,0.0308228,0.0320435,0.00183105,0.0219727,0.0158691
77,2,0.0152588,0.0106812,0.0485229,0.0152588,0.00701904,0.0131226,0.0265503,-0.012207,0.0292969,0.0476074,-0.0259399,0.0241089,0.0250244
77,3,0.0390625,-0.0271606,0.0204468,0.00854492,-0.022583,0.0259399,0.0378418,-0.06073,0.022583,0.0308228,-0.0228882,0.0210571,0.0253296
77,4,0.0357056,0.0622559,0.0109863,0.017395,0.0689697,0.0299072,0.0314331,0.00549316,0.0253296,0.022583,-0.0363159,0.027771,0.0152588
78,0,0.0186157,0.0140381,0.00762939,0.00610352,0.00244141,0.0302124,0.0164795,-0.0268555,0.0137329,0.022583,-0.0216675,-0.00213623,0.0311279
78,1,0.0192261,0.00610352,0.0204468,0.020752,0.015564,0.0167847,0.0192261,0.0817871,0.0106812,0.0253296,-0.0262451,0.0213623,0.012207
78,2,0.0128174,0.0115967,0.0134277,-0.00152588,0.00396729,0.0119019,0.0219727,0.0146484,0.0338745,0.0289917,-0.0250244,0.0219727,0.0213623
78,3,0.0201416,0.0283813,0.0286865,0.0164795,-0.00183105,0.0296021,0.0308228,-0.0268555,0.0302124,0.0283813,-0.0180054,0.0164795,0.0012207
78,4,0.0210571,0.0430298,0.0125122,0.0137329,0.00976562,0.00946045,0.0189209,-0.03479,0.0253296,0.0830078,-0.0283813,0.00396729,0.0537109
79,0,-0.0323486,0.020752,0.0283813,0.0714111,0.0170898,0.0387573,0.0271606,-0.0222778,0.0369263,0.0314331,-0.0244141,0.0140381,0.0201416
79,1,0.0280762,0.022583,-0.00366211,0.00610352,0.0146484,0.0210571,0.0384521,-0.0274658,0.0228882,0.0228882,-0.032959,0.0289917,0.0479126
79,2,0.0244141,0.0506592,0.00976562,0.015564,0.0134277,0.022583,0.0201416,-0.0769043,0.0238037,0.027771,-0.0140381,0.0350952,0.0286865
79,3,0.0411987,0.0256348,0.0259399,0.0161743,-0.0170898,0.0350952,0.0265503,0.0268555,0.0125122,0.0231934,-0.0692749,0.0128174,0.0286865
79,4,0.0253296,0.0213623,-0.00915527,0.00610352,0.0152588,0.0314331,0.0344849,-0.0161743,-0.000305176,0.0357056,-0.0265503,0.0366211,0.0167847
80,0,0.0283813,0.0115967,0.0210571,0.00823975,0.0265503,0.0228882,0.0189209,-0.03479,0.0210571,0.0305176,-0.0222778,0.0198364,0.0350952
80,1,0.0186157,0.015564,0.0115967,-0.0088501,-0.0360107,0.0177002,0.0476074,0.0363159,0.0360107,0.0714111,-0.039978,0.0210571,0.0231934
80,2,0.0238037,0.0140381,0.0204468,0.0204468,0.0146484,0.0283813,0.0244141,-0.017395,0.0320435,0.0411987,-0.0338745,-0.000915527,0.0320435
80,3,0.0152588,0.0198364,0.0158691,0.0149536,0.0265503,0.0234985,-0.00335693,-0.00488281,0.0222778,0.0283813,-0.0363159,0.0149536,0.0201416
80,4,0.0253296,0.0219727,0.0253296,0.00366211,0.00915527,0.0119019,0.038147,1.96594,0.0192261,0.039978,-0.0323486,0.0299072,0.0146484
81,0,0.0213623,-0.00366211,-0.0244141,0.0228882,0.00915527,0.0259399,0.0311279,-0.54657,0.0732422,0.0280762,-0.027771,0.0750732,0.0180054
81,1,0.0247192,0.0180054,0.0192261,-0.00213623,0.00579834,0.0234985,0.0344849,-0.655212,0.0146484,0.0482178,-0.0204468,0.0302124,0.0247192
81,2,0.0262451,0.0201416,0.00701904,0.0143433,0.0149536,0.0167847,0.0247192,-0.548096,0.012207,0.0195312,-0.0540161,0.0314331,0.0286865
81,3,0.0262451,0,0.0201416,0.0100708,0.0152588,-0.0375366,0.0262451,-0.529785,0.0521851,0.0296021,-0.0292969,0.0726318,0.0283813
81,4,-0.0350952,0.0244141,0.0115967,-0.0518799,-0.000305176,0.0189209,0.0262451,-0.352783,0.0442505,0.0717163,-0.038147,0.017395,-0.027771
82,0,0.0268555,0.0274658,-0.00244141,0.00457764,0.00854492,0.0198364,0.0140381,1.27472,0.0430298,0.0378418,-0.0332642,0.0268555,0.0350952
82,1,0.0482178,-0.0378418,0.0259399,0.00946045,0.0143433,0.0253296,0.0219727,-0.218201,0.0271606,0.0308228,-0.0393677,-0.0088501,0.0286865
82,2,0.0289917,-0.012207,0.0115967,0.0521851,0.0369263,-0.000915527,0.0256348,-0.173035,0.00946045,0.00915527,-0.0332642,0.032959,0.0158691
82,3,0.0192261,0.0708008,0.0195312,0.00946045,0.0161743,0.00396729,0.0259399,-0.606995,0.0140381,0.0161743,-0.0418091,0.0366211,0.0350952
82,4,0.0357056,0.0299072,0.0262451,0.0204468,0.0115967,0.0131226,0.0222778,-0.533752,0.027771,0.0274658,-0.0540161,0.0259399,0.0231934
83,0,0.0396729,0.0271606,0.0268555,0.020752,0.0149536,0.012207,0.00610352,-0.506287,0.0164795,0.0335693,-0.0271606,0.0357056,0.020752
83,1,0.015564,0.0201416,0.00549316,-0.0186157,0.00976562,-0.00671387,0.0698853,-0.464783,0.0326538,0.0219727,-0.0271606,0.0509644,0.017395
83,2,0.0238037,0.0280762,0.0137329,0.00427246,0.00183105,0.022583,0.0274658,-0.423279,0.0128174,0.0238037,-0.0183105,0.0372314,0.017395
83,3,0.00976562,0.022583,0.0112915,-0.000610352,0.0228882,0.010376,0.0317383,-0.384216,0.0283813,0.0460815,-0.00518799,0.0262451,0.0161743
83,4,0.0323486,0.00793457,0.00762939,0.0125122,0.00732422,0.00457764,0.0259399,-0.326843,0.0115967,0.0305176,-0.0671387,0.0476074,0.0204468
84,0,0.0238037,0.0335693,0.0112915,0.0137329,0.00915527,0.0137329,0.0189209,-0.300903,0.0338745,0.0256348,-0.0265503,0.0735474,0.0357056
84,1,0.0222778,0.0192261,-0.0152588,0.0137329,0.010376,0.00274658,0.0256348,-0.281067,0.0665283,0.00915527,-0.0360107,-0.0256348,-0.0128174
84,2,0.0216675,0.0262451,0.020752,0.0140381,0.00946045,0.00976562,0.0186157,-0.25116,0.0253296,-0.0112915,-0.0268555,0.0393677,0.0238037
84,3,-0.00213623,0.0167847,-0.00671387,0.0100708,0.00396729,0.020752,0.0357056,0.479736,0.0241089,0.00457764,-0.0323486,0.0238037,0.00579834
84,4,0.0262451,0.0238037,0.0210571,0.0357056,0.0164795,0.00518799,-0.0296021,0.106812,0.0375366,0.00671387,-0.0299072,0.0299072,0.0408936
85,0,0.0265503,0.00610352,0.0241089,0.0198364,0.0146484,0.038147,0.0302124,-0.266418,-0.0296021,-0.0814819,-0.0366211,0.0540161,0.017395
85,1,0.0341797,0.0595093,0.0250244,0.0274658,0.0421143,0.015564,0.012207,1.0849,0.0219727,0.0256348,-0.0415039,0.0247192,0.0247192
85,2,0.0286865,0.0680542,0.0576782,0.0262451,0.03479,0.0183105,0.027771,1.06232,0.0183105,-0.0897217,-0.0274658,0.0158691,0.0152588
85,3,0.0320435,0.0119019,0.0198364,0.0186157,0.0152588,0.0128174,0.0161743,-0.234985,0.0177002,-0.691223,-0.0210571,0.032959,0.0372314
85,4,0.0427246,0.0186157,0.0241089,-0.00335693,0.0100708,0.00976562,0.0253296,0.636597,0.0222778,-0.67627,-0.0335693,0.0244141,0.0250244
86,0,0.0408936,0.0219727,-0.0106812,0.0112915,0.00244141,0.0131226,0.00915527,0.403137,0.0222778,-1.04279,-0.0338745,0.0286865,0.0344849
86,1,0.0534058,0.0402832,0.0222778,0.0189209,0.0222778,0.00854492,0.00732422,-0.501709,0.0253296,-0.971069,-0.00305176,0.0250244,0.0286865
86,2,0.0405884,-0.0228882,0.0216675,0.0137329,0.00823975,0.012207,0.0137329,0.0408936,0.0253296,-0.896301,-0.0354004,0.010376,0.0405884
86,3,0.0436401,0.0164795,0.0253296,0.0305176,0.0183105,0.000915527,0.0238037,1.20239,0.0222778,-0.630798,-0.0140381,0.0299072,0.0262451
86,4,0.0375366,0.0088501,0.0317383,0.022583,0.0222778,-0.0119019,0.010376,1.3855,0.0302124,-0.653992,-0.0360107,0.0241089,0.0265503
87,0,0.0445557,0.0296021,0.0161743,0.0186157,0.00732422,0.00701904,0.0283813,-0.190735,0.0280762,-0.639648,-0.0320435,0.022583,0.0296021
87,1,0.0259399,0.022583,0.0509644,0.00946045,-0.000610352,0.0134277,0.0164795,-0.526123,0.0100708,-0.641479,-0.0286865,0.0158691,-0.0271606
87,2,0.0512695,0.0366211,0.0244141,0.0283813,0.0311279,0.0119019,0.0198364,-0.698547,0.020752,-0.279236,-0.0299072,0.0314331,-0.0238037
87,3,0.0296021,0.0494385,0.0170898,0.0164795,-0.0286865,0.0140381,0.0262451,-0.695801,0.0366211,-0.328674,-0.0231934,0.0289917,0.0106812
87,4,0.0259399,0.0357056,0.0311279,0.0204468,0.0314331,0.0366211,0.0183105,-0.636597,0.020752,-0.340271,-0.0170898,0.0259399,0.0454712
88,0,0.0610352,0.0332642,0.0286865,0.0192261,-0.00457764,0.00854492,0.00823975,-0.189819,0.0143433,-0.360718,-0.0222778,0.0271606,0.0241089
88,1,0.0299072,0.0375366,0.0259399,0.0164795,0.017395,0.0164795,0.0137329,-0.354004,0.0238037,-0.345459,-0.0335693,0.0390625,0.0180054
88,2,0.0234985,0.00671387,0.0473022,0.0268555,0.0170898,0.0106812,0.0152588,-0.506287,-0.00152588,-0.327759,-0.0238037,0.0341797,0.0274658
88,3,-0.0244141,0.0210571,0.0341797,0.0744629,0.0177002,0.00793457,-0.0363159,-0.467224,0.0167847,-0.23468,-0.022583,0.022583,-0.0241089
88,4,0.038147,0.0228882,0.012207,0.0302124,0.0109863,-0.0518799,0.0128174,-0.419312,0.0427246,-0.217896,-0.0308228,0.0280762,0.0595093
89,0,0.0219727,0.0149536,0.0186157,0.012207,0.0112915,0.0131226,0.0299072,-0.371704,0.022583,-0.229492,-0.027771,0.0317383,0.0216675
89,1,0.0299072,0.0274658,0.0311279,0.0244141,0.0238037,0.00823975,0.0109863,-0.337219,0.0222778,-0.0741577,-0.0396729,0.0402832,0.0292969
89,2,0.0384521,0.0292969,0.0204468,0.0170898,0.0247192,0.0256348,0.0152588,-0.310059,0.0204468,0.0747681,-0.0320435,0.0286865,0.0439453
89,3,0.0210571,-0.00732422,0.022583,0.0238037,0.0299072,0.012207,0.022583,-0.315552,0.0161743,0.719299,-0.0231934,0.0454712,0.0363159
89,4,0.0241089,0.027771,0.0210571,0.0192261,0.0311279,0.0256348,0.0119019,-0.290527,0.0201416,1.37848,-0.0262451,0.0497437,0.0445557
90,0,0.0305176,0.0592041,0.0170898,0.0012207,0.0213623,0.00457764,0.0180054,-0.213623,0.0222778,1.36017,-0.0238037,0.0405884,0.0424194
90,1,0.0308228,0.0210571,0.0411987,0.0286865,0.0250244,0.00274658,0.0238037,-0.192261,0.010376,1.24207,-0.0271606,0.0128174,0.0231934
90,2,0,0.0350952,0.0317383,0.0863647,0.0323486,0.0143433,0.0485229,-0.189819,0.00427246,1.13861,-0.0238037,0.0418091,0.0350952
90,3,0.027771,0.0820923,0.0286865,0.0271606,0.0213623,0.00823975,0.010376,-0.158691,0.012207,1.05408,-0.0292969,-0.00976562,0.0378418
90,4,0.0457764,0.0195312,0.0112915,0.0201416,0.0469971,-0.00396729,0.0210571,-0.167236,0.0375366,0.944214,-0.0198364,0.0177002,0.0299072
91,0,0.0439453,0.0192261,0.0186157,-0.0012207,0.00640869,0.0146484,-0.00488281,-0.159302,0.0274658,0.858765,-0.0265503,0.0305176,-0.00366211
91,1,0.012207,0.0241089,0.0112915,0.0302124,0.0192261,0.0326538,0.00854492,-0.14801,0.0332642,0.785522,-0.0427246,0.0473022,0.0402832
91,2,0.0222778,0.0473022,0.088501,0.0302124,0.0372314,0.0143433,0.0250244,-0.166016,0.0314331,0.658569,-0.0228882,0.0186157,0.0439453
91,3,0.0317383,0.0164795,0.0302124,-0.0180054,0.0201416,0.00701904,0.00671387,-0.144958,0.0280762,0.575867,-0.0454712,0.0140381,-0.0134277
91,4,0.032959,0.0201416,0.0323486,0.0183105,0.0109863,0.0323486,0.0146484,-0.124817,0.00549316,0.407104,-0.0341797,0.0378418,0.0238037
92,0,0.027771,0.027771,0.0579834,0.0408936,0.0262451,0.00701904,0.0152588,-0.0317383,0.0131226,0.0759888,-0.0466919,0.0335693,0.0350952
92,1,0.0750732,0.0466919,0.0292969,-0.0323486,0.0158691,0.0161743,0.0411987,-0.00976562,0.0167847,0.479431,-0.0326538,0.0213623,0.0259399
92,2,0.0213623,-0.0241089,0.022583,0.0302124,0.0317383,0.0201416,0.0137329,-0.0158691,0.0253296,0.497131,-0.0286865,0.0088501,0.0338745
92,3,0.0405884,0.0866699,0.0305176,0.0198364,-0.00244141,0.0183105,0.0170898,0.0100708,0.0164795,0.453796,-0.0357056,0.0119019,0.0164795
92,4,0.0430298,0.0247192,0.0192261,0.0109863,0.0158691,0.00640869,0.0137329,0.000915527,0.0231934,0.344238,-0.0222778,0.0424194,0.00915527
93,0,0.027771,0.0338745,0.0311279,0.0466919,0.0250244,0.0326538,0.022583,0.0115967,0.0140381,0.337219,-0.0344849,0.0375366,0.0189209
93,1,0.00793457,0.0341797,0.0283813,0.043335,0.0112915,0.0262451,0.00976562,-0.00671387,0.0128174,0.322266,-0.000610352,0.0274658,-0.0296021
93,2,0.0274658,0.0201416,0.0201416,0.0152588,0.0286865,0.00274658,0.0177002,0.0598145,0.0152588,0.271301,-0.0265503,0.0210571,0.0149536
93,3,0.0622559,0.00823975,0.0213623,0.0479126,0.0109863,0.0204468,0.0106812,0.0332642,0.0161743,0.191345,-0.0537109,0.045166,-0.00946045
93,4,0.0125122,0.0402832,0.0320435,0.0216675,0.0292969,0.0302124,-0.000610352,0.0210571,0.0128174,0.239868,0.00396729,0.0302124,0.0375366
94,0,0.0238037,0.0320435,0.0201416,0.0244141,0.0195312,0.0164795,0.0115967,0.00915527,0.00549316,0.210571,-0.0253296,0.0265503,0.0363159
94,1,0.0387573,0.00915527,0.0195312,0.0262451,0.0164795,0.00854492,0.0222778,0.0595093,0.00915527,0.195618,-0.0274658,0.0549316,0.0238037
94,2,0.00274658,0.00762939,0.0338745,0.0262451,0.0418091,0.0271606,0.0338745,0.0805664,0.0137329,0.150452,-0.0283813,0.0268555,0.0311279
94,3,0.0234985,0.0299072,0.0158691,0.0238037,0.0311279,0.0161743,0.0149536,0.0308228,0.0152588,0.19928,-0.0265503,0.0344849,0.0466919
94,4,0.0250244,0.0631714,0.0427246,0.0308228,0.045166,0.0253296,0.0201416,0.0280762,0.0228882,0.131531,-0.0177002,0.0836182,0.0344849
95,0,0.0357056,0.0256348,0.0167847,-0.0390625,0.0369263,0.0231934,0.0112915,0.043335,0.00854492,0.0967407,-0.0265503,0.0338745,0.0411987
95,1,0.0335693,0.0332642,0.010376,0.0201416,0.0274658,0.0524902,0.0247192,0.0549316,0.020752,0.0848389,-0.0262451,0.0189209,0.0289917
95,2,0.0338745,0.022583,0.0430298,0.0283813,0.038147,0.0286865,0.0308228,0.0314331,0.0115967,0.065918,-0.039978,0.0311279,0.0357056
95,3,0.0283813,0.03479,0.0100708,0.0314331,0.0326538,0.0167847,-0.00335693,0.0476074,0.00976562,0.0588989,-0.0256348,0.0244141,0.0289917
95,4,0.0302124,0.0421143,0.0686646,0.0115967,0.0268555,0.0457764,0.022583,0.0479126,0.0088501,0.0473022,-0.0424194,0.0469971,0.0592041
96,0,-0.020752,0.038147,0.0271606,-0.0195312,0.0198364,0.0137329,0.0692749,0.0637817,0.0137329,0.0750732,0.00366211,0.0338745,0.0231934
96,1,0.0369263,0.0238037,0.0244141,0.03479,0.0170898,-0.00823975,0.0454712,0.0430298,-0.00610352,0.0222778,-0.0424194,0.0628662,0.032959
96,2,0.0540161,0.0265503,0.0341797,0.0735474,0.0244141,0.0177002,0.0390625,0.03479,0.00640869,0.0384521,-0.0308228,0.0384521,0.0482178
96,3,0.0286865,0.0302124,0.0167847,0.0213623,0.0817871,0.0283813,0.0143433,0.0137329,0.0119019,-0.301514,-0.0274658,0.0366211,0.0369263
96,4,0.0265503,0.0296021,0.0119019,0.0366211,0.0372314,0.0149536,0.0256348,0.0588989,0.0177002,-0.106812,-0.0213623,0.0292969,0.0308228
97,0,0.0198364,0.03479,0.0320435,0.0210571,0.0283813,0.0799561,0.00946045,0.0479126,-0.0164795,0.0106812,-0.0302124,-0.0115967,0.0378418
97,1,0.0292969,0.0244141,0.0228882,0.0167847,0.0311279,0.0222778,0.0128174,0.050354,0.0134277,0.0466919,-0.0326538,0.0759888,0.0317383
97,2,0.022583,0.0219727,0.0201416,0.0265503,0.0338745,0.00793457,0.0189209,0.0463867,0.0317383,0.0195312,-0.0326538,0.0320435,-0.0228882
97,3,0.0219727,0.017395,0.0344849,0.0311279,0.0177002,0.0244141,0.020752,0.0454712,0.00518799,0.0579834,-0.0292969,0.0338745,0.0360107
97,4,0.0183105,0.0341797,0.0326538,0.0280762,0.0170898,0.0271606,0.00976562,0.0485229,0.0256348,0.0137329,-0.020752,0.0292969,0.0357056
98,0,-0.00457764,0.0402832,0.0283813,0.0436401,0.0283813,0.0198364,0.017395,0.0540161,0.012207,0.0299072,-0.0283813,0.0228882,0.0109863
98,1,0.00976562,0.0323486,0.0378418,0.0228882,0.0357056,-0.00244141,0.015564,0.0323486,0.0170898,0.0387573,-0.032959,0.0463867,0.0299072
98,2,0.0222778,0.0274658,0.0274658,0.0265503,0.0430298,0.00732422,0.0170898,0.0296021,0.0195312,0.027771,-0.093689,0.0369263,0.0289917
98,3,0.0161743,0.0146484,0.0323486,0.0213623,0.0244141,0.0213623,0.0296021,0.0454712,0.015564,-0.0262451,-0.0302124,0.0274658,0.0195312
98,4,0.0271606,0.0335693,0.0335693,0.015564,0.03479,0.0289917,0.0213623,0.0439453,0.0167847,0.0112915,-0.0253296,0.0183105,0.0354004
99,0,0.0302124,0.0665283,0.0360107,0.0210571,0.0402832,0.0234985,0.0140381,0.0250244,0.0213623,0.0311279,-0.0357056,0.0921631,0.038147
99,1,0.00457764,0.0296021,0.0299072,0.0088501,0.0274658,0.0231934,0.0897217,0.0546265,0.0186157,0.0854492,-0.0280762,0.0125122,0.0823975
99,2,0.0259399,0.0317383,0.0411987,0.0289917,0.0198364,0.0323486,0.0180054,0.03479,0.0219727,0.0192261,-0.0164795,0.0234985,0.0372314
99,3,0.0201416,0.0366211,0.0244141,0.039978,0.0262451,0.0180054,0.0115967,0.0457764,0.010376,0.0106812,-0.0180054,0.0579834,0.022583
99,4,0.0143433,0.0424194,0.043335,0.0259399,0.039978,-0.0137329,0.0286865,0.0265503,0.0170898,-0.0250244,-0.0167847,0.0283813,0.0161743
100,0,0.032959,0.0305176,0.0421143,0.0265503,0.0326538,0.0683594,0.012207,0.0219727,-0.0244141,-0.00762939,-0.00335693,0.0128174,0.0137329
100,1,0.0259399,0.012207,0.0292969,0.0213623,0.0259399,0.0180054,0.0112915,0.0158691,0.0280762,-0.0177002,-0.0161743,0.0213623,0.00427246
100,2,0.0338745,0.0292969,0.0357056,0.0350952,0.0308228,0.0338745,0.020752,0.0332642,0.020752,-0.0262451,-0.0195312,0.039978,0.0289917
100,3,0.0192261,0.0247192,0.0350952,0.0527954,0.0396729,0.0283813,-0.0152588,0.0338745,0.0143433,-0.0268555,-0.0100708,0.0195312,0.0292969
100,4,0.0231934,0.0222778,0.0280762,0.027771,0.043335,0.0180054,0.0186157,0.0296021,0.0219727,-0.0372314,-0.00488281,0.03479,0.0170898
101,0,0.015564,0.022583,0.0180054,0.0683594,0.03479,0.0393677,-0.0125122,0.0335693,0.0222778,-0.0613403,-0.0390625,0.0256348,0.00701904
101,1,0.0335693,0.020752,0.0195312,0.0283813,0.027771,0.0241089,0.0170898,0.0323486,0.0219727,-0.0405884,-0.015564,0.0177002,0.0244141
101,2,0.0131226,0.0262451,0.0317383,0.0436401,0.0280762,0.0198364,0.0128174,0.0177002,0.0128174,-0.0564575,-0.0125122,-0.00946045,0.0289917
101,3,0.0415039,0.0247192,0.010376,0.0152588,0.0253296,0.0167847,0.0305176,0.0396729,0.0219727,-0.0378418,-0.0238037,0.0283813,-0.0140381
101,4,-0.039978,0.0250244,0.0286865,0.0387573,0.0378418,0.0289917,0.0152588,0.0177002,0.0198364,-0.0488281,0.015564,0.0241089,0.0186157
102,0,0.0228882,0.0320435,0.0177002,0.0283813,0.0378418,0.103149,0.0256348,0.0259399,-0.0140381,-0.0585938,-0.0271606,0.0570679,0.0219727
102,1,-0.00457764,0.0146484,0.0305176,0.00396729,0.0393677,0.0222778,0.0369263,0.0509644,0.0149536,-0.0567627,-0.027771,0.0280762,0.0231934
102,2,0.0646973,0.0210571,0.0314331,0.0201416,0.0289917,0.0164795,0.0170898,0.0274658,0.0265503,-0.0448608,-0.0363159,0.0305176,0.0152588
102,3,-0.0112915,0.0338745,0.0344849,-0.0354004,0.0302124,0.0344849,-0.0311279,0.0262451,0.00793457,-0.0534058,-0.00640869,0.0350952,0.0271606
102,4,0.0314331,0.0320435,0.0250244,0.0396729,0.0305176,0.0314331,0.0231934,0.0265503,0.0158691,-0.0497437,-0.00823975,0.022583,0.0216675
103,0,0.0241089,0.0314331,0.00823975,0.0332642,0.0198364,-0.0244141,0.0280762,0.0256348,0.0228882,-0.0640869,-0.0323486,0.0219727,0.0259399
103,1,0.0180054,0.0164795,0.0167847,0.0204468,0.0305176,0.038147,0.0137329,0.0115967,0.0195312,-0.0494385,-0.0228882,0.0088501,0.0479126
103,2,0.010376,0.03479,0.0250244,0.0280762,0.0363159,0.0231934,0.00488281,0.0195312,0.0186157,-0.071106,-0.0164795,0.0152588,0.0158691
103,3,0.00335693,0.0698853,0.0332642,0.0210571,0.0628662,0.0302124,0.015564,0.00823975,0.022583,-0.055542,-0.0149536,0.0283813,0.0256348
103,4,0.0228882,0.032959,0.0219727,0.0283813,0.0180054,0.0512695,0.0161743,0.0228882,0.00701904,-0.067749,-0.0119019,0.0146484,0.0204468
104,0,0.0271606,0.0466919,0.0222778,0.0241089,0.0457764,0.0872803,0.0292969,0.0125122,0.0482178,-0.0656128,-0.0109863,0.0161743,0.0326538
104,1,0.0210571,0.0131226,0.0213623,0.0177002,0.0372314,0.015564,0.010376,0.0231934,-0.0311279,-0.0656128,-0.0146484,0.0424194,0.0134277
104,2,0.0222778,0.0222778,0.0204468,0.0234985,0.0170898,-0.0183105,0.0238037,0.0222778,0.0369263,-0.078125,-0.0125122,0.0787354,0.0195312
104,3,0.027771,0.0842285,0.0308228,0.0311279,0.0939941,0.0195312,0.0219727,-0.0354004,0.0234985,-0.0613403,-0.0189209,0.0305176,0.0250244
104,4,0.0128174,0.0152588,0.0305176,0.0424194,0.0305176,0.0332642,0.0360107,0.00915527,0.00701904,-0.0708008,-0.00854492,0.0128174,0.0271606
105,0,0.0152588,0.0302124,0.0228882,0.0219727,0.015564,0.0180054,0.0186157,0.0323486,0.0128174,-0.0695801,0.00854492,0.0177002,0.0314331
105,1,0.0177002,0.0238037,0.027771,0.0250244,0.0115967,0.0289917,0.0302124,0.0186157,0.0109863,-0.06073,-0.0292969,-0.0012207,0.0177002
105,2,0.0198364,0.0976562,0.0421143,0.0167847,-0.00946045,0.0125122,0.012207,0.0280762,0.00579834,-0.055542,-0.027771,0.0289917,0.0201416
105,3,0.0262451,0.0241089,0.0366211,0.0152588,0.0296021,0.0271606,0.0234985,0.0134277,0.00488281,-0.0527954,-0.0219727,0.0189209,0.022583
105,4,0.0180054,0.0296021,0.0201416,0.0265503,0.0341797,0.0534058,0.0366211,0.0161743,0.0164795,-0.0588989,-0.0137329,0.0198364,0.0164795
106,0,0.0140381,0.0189209,0.0222778,0.00549316,0.0198364,0.022583,-0.0152588,0.0210571,0.00640869,0.00793457,-0.0164795,0.0164795,0.0186157
106,1,0.022583,0.0274658,0.0402832,0.020752,0.0375366,0.0375366,0.0219727,0.0137329,-0.0012207,-0.0631714,-0.00793457,0.0201416,0.0531006
106,2,0.0244141,0.0222778,0.0286865,0.0286865,0.0323486,0.0274658,0.0942993,0.0201416,0.0112915,-0.0979614,-0.022583,0.0164795,0.0292969
106,3,0.0485229,0.022583,0.0164795,0.0473022,0.0292969,0.0238037,0.0204468,0.0109863,0.00335693,-0.0421143,-0.0265503,0.0167847,0.0216675
106,4,0.0250244,0.0115967,0.0299072,0.0338745,0.0396729,0.0183105,0.0408936,0.0204468,0.0119019,-0.0466919,-0.0244141,0.0201416,0.062561
107,0,0.0112915,0.0286865,0.0430298,0.0131226,0.0497437,-0.0201416,0.0192261,0.0115967,-0.0244141,-0.0482178,-0.0292969,-0.0210571,0.0268555
107,1,0.00671387,0.022583,0.0311279,0.0109863,0.0228882,-0.00183105,0.0289917,0.03479,-0.0479126,-0.0296021,-0.0158691,0.0576782,0.0354004
107,2,0.0247192,0.0701904,0.00671387,0.0210571,0.0320435,0.0149536,0.0289917,0.0119019,0.0244141,-0.0234985,-0.0161743,-0.00610352,0.0320435
107,3,0.0234985,0.0164795,-0.0250244,0.032959,-0.00640869,0.0424194,0.0244141,0.0204468,0.000610352,-0.0256348,-0.0222778,0.0088501,0.0326538
107,4,0.0186157,0.0161743,0.0231934,0.0357056,0.0326538,0.0231934,0.0219727,0.0265503,0.0134277,-0.0726318,-0.0228882,0.00854492,-0.00396729
108,0,0.012207,-0.0262451,0.0106812,0.0360107,0.00549316,0.027771,0.0283813,0.0210571,0.017395,-0.0222778,-0.0189209,0.0146484,0.0216675
108,1,0.00762939,0.0195312,0.0131226,0.0253296,0.00701904,-0.0183105,0.0228882,0.000915527,-0.0134277,-0.0265503,-0.0088501,0.010376,0.0140381
108,2,0.00915527,0.0292969,0.0305176,0.0317383,0.0112915,0.0259399,0.0521851,0.0137329,0.0186157,-0.0106812,-0.0228882,0.0115967,0.00854492
108,3,0.0204468,0.0140381,0.0106812,0.0247192,0.0231934,0.0222778,0.0189209,0.00946045,0.0350952,-0.0253296,-0.0186157,0.0192261,0.0299072
108,4,0.0152588,-0.00671387,0.0372314,0.0338745,0.0250244,0.0460815,0.0317383,0.0106812,0.00549316,-0.0283813,-0.0234985,0.0189209,0.0247192
109,0,0.0204468,0.00823975,0.0344849,0.0360107,0.0253296,0.0311279,0.0198364,0.0112915,0.0112915,-0.0296021,-0.0134277,0.0201416,0.0146484
109,1,0.0259399,0.0201416,0.0430298,0.0296021,0.0131226,0.0402832,0.0219727,0.0100708,0.0100708,-0.0125122,-0.0140381,0.00244141,0.0247192
109,2,-0.00915527,0.0231934,-0.0350952,0.0164795,0.0186157,0.0643921,0.0286865,0.00427246,0.0527954,-0.0280762,-0.0161743,-0.0311279,0.020752
109,3,0.0256348,0.0128174,0.0125122,0.0302124,-0.00579834,0.0473022,0.0390625,0.0119019,0.0204468,-0.0238037,-0.017395,0.0164795,0.0247192
109,4,0.00976562,-0.0384521,0.0326538,0.0457764,0.0723267,0.0143433,0.0201416,0.0186157,0.00793457,-0.0164795,-0.0213623,0.0201416,0.0216675
110,0,0.0198364,0.00152588,0.0161743,0.0488281,0.0305176,0.0650024,0.00915527,0.00213623,0.0149536,-0.0241089,-0.0170898,0.00915527,0.0231934
110,1,0.0177002,0.0247192,0.022583,0.0189209,0.0234985,0.0592041,0.0375366,0.0128174,0.0299072,-0.0112915,-0.0137329,0.0161743,0.00274658
110,2,0.00946045,0.0363159,0.0143433,0.0244141,-0.0167847,0.0292969,0.0338745,-0.00549316,0.015564,-0.0161743,-0.0164795,0.0152588,0.00793457
110,3,0.017395,0.0189209,0.0183105,0.0292969,0.0357056,0.0320435,0.0537109,-0.00701904,0.0170898,0.0250244,-0.0164795,0.00457764,-0.0408936
110,4,-0.0167847,0.0247192,0.027771,-0.0241089,0.0384521,0.017395,0.0335693,0.0262451,-0.00610352,-0.00244141,-0.0222778,0.017395,0.0234985
111,0,0.00701904,0.0115967,0.0750732,0.0357056,0.0189209,0.0274658,0.0234985,0.00946045,0.0088501,0.00396729,-0.0131226,0.0100708,0.0152588
111,1,0.010376,0.0143433,0.00366211,0.0317383,0.0311279,0.0222778,0.0244141,0.00610352,0.00671387,-0.0296021,-0.0131226,0.0204468,0.0125122
111,2,0.0112915,-0.00671387,0.0274658,0.015564,0.0302124,0.0296021,0.0332642,0.0241089,0.0280762,-0.0201416,-0.0106812,0.0759888,0.022583
111,3,0.022583,0.0592041,0.0244141,0.0137329,0.03479,0.0320435,0.0482178,0.0222778,0.0198364,-0.0109863,-0.0192261,0.0283813,0.015564
111,4,0.0274658,0.0137329,0.0427246,0.0299072,0.010376,-0.0134277,0.0323486,0.000915527,-0.0320435,-0.00244141,-0.0143433,-0.0415039,0.0222778
112,0,-0.00244141,0.0201416,0.0189209,0.022583,-0.00579834,0.0357056,0.0335693,0.00183105,0.0204468,-0.0112915,0.00518799,0.010376,0.0140381
112,1,0.00366211,0.00915527,0.020752,0.0250244,0.03479,0.0323486,0.0424194,-0.0131226,0.015564,0.00335693,-0.0143433,0.00823975,0.0112915
112,2,-0.000915527,0.015564,0.0210571,0.032959,0.0253296,-0.00610352,0.0274658,0.0140381,-0.0234985,-0.00183105,-0.0210571,0.0164795,0.0170898
112,3,0.0161743,-0.0253296,0.0106812,0.0234985,-0.0335693,0.0289917,0.0231934,0.0140381,0.00518799,-0.00701904,-0.0344849,0.0164795,0.0143433
112,4,0.0231934,0.0262451,0.0247192,0.0253296,0.0189209,0.0247192,0.0228882,0.00640869,0.010376,0.0164795,-0.0195312,0.00396729,0.0186157
113,0,-0.00854492,0.0088501,0.0125122,0.0238037,0.0119019,0.0430298,0.0436401,0.0131226,0.0253296,-0.0201416,-0.00518799,0.0112915,0.0375366
113,1,0.0314331,0.00701904,0.0177002,0.0115967,0.0317383,0.0274658,-0.00366211,0.0234985,0.0314331,-0.0216675,-0.0180054,0.00823975,0.0152588
113,2,0.00732422,0.0183105,0.0289917,0.0744629,0.0164795,0.0262451,0.0286865,0.0210571,0.0250244,0.00946045,-0.00549316,0.022583,0.00732422
113,3,0.015564,0.012207,0.0158691,0.0128174,0.0259399,0.0241089,0.0497437,0.00457764,0.0170898,0.00610352,-0.0247192,0.0161743,0.0350952
113,4,-0.0158691,0.0115967,0.0192261,0,0.00213623,0.0198364,0.0357056,0.0473022,0.0125122,0.00579834,-0.0537109,0.0189209,0.0250244
114,0,0.0161743,0.00549316,-0.0131226,0.0167847,0.00976562,0.022583,0.039978,-0.0146484,0.0164795,-0.0210571,-0.000610352,0.0198364,0.00427246
114,1,0.00579834,0.00305176,0.0161743,0.0299072,0.00427246,0.0375366,0.0390625,0.00854492,0.0222778,-0.0115967,-0.0213623,-0.0088501,0.0149536
114,2,0.0149536,0.0125122,0.00915527,0.0177002,0.0332642,-0.017395,0.0234985,0.0195312,0.0845337,0.0109863,-0.0167847,-0.0149536,0.0183105
114,3,0.015564,0.010376,0.0192261,0.0274658,0.0195312,0.0198364,0.0326538,0.0164795,0.0387573,0.00183105,-0.055542,0.0167847,0.012207
114,4,-0.00183105,0.0195312,0.0186157,0.03479,0.0256348,0.0283813,0.043335,0.00549316,0.0320435,0.00640869,-0.0152588,0.00152588,0.0601196
115,0,0.0289917,0.00732422,0.0164795,-0.0411987,0.0341797,0.0296021,0.0189209,0.0170898,0.0231934,0.00274658,-0.0201416,0.022583,0.0271606
115,1,0.0299072,0.0201416,0.0164795,0.0292969,0.0143433,0.00244141,0.0234985,0.0195312,0.0634766,-0.00488281,-0.0222778,0.0506592,0.0286865
115,2,0.0320435,-0.0390625,0.0125122,0.0317383,0.0750732,0.0326538,0.0140381,0.0662231,0.0296021,0.00640869,-0.0100708,0.0149536,0.012207
115,3,0.0167847,0.0299072,0.00457764,0.017395,0.0402832,0.0244141,0.0262451,0.0186157,0.0228882,0.0234985,-0.0231934,0.0125122,0.00793457
115,4,0.022583,0.0213623,0.0335693,0.0238037,0.062561,0.0149536,0.0231934,0.0131226,0.0311279,0.0131226,-0.00823975,0.0109863,0.0177002
116,0,-0.0012207,0.000610352,-0.000915527,0.0296021,0.027771,0.022583,0.0250244,0.0134277,0.0372314,0.0210571,-0.0189209,0.0088501,0.00915527
116,1,0.0125122,0.010376,0.0164795,0.027771,0.0170898,0.0570679,0.0311279,0.0137329,0.0198364,0.00152588,-0.0231934,0.0146484,0.0152588
116,2,0.0552368,0.0241089,0.0161743,0.0360107,0.022583,0.03479,0.0305176,0.0228882,0.0152588,0.0180054,0.0311279,0.0195312,0.0152588
116,3,0.0158691,0.0115967,0.0253296,0.015564,0.0311279,0.03479,0.0268555,0.0183105,0.015564,0.00915527,-0.027771,0.010376,0.0115967
116,4,0.0259399,0.00915527,0.00366211,0.0253296,0.0357056,0.0286865,0.0448608,0.00549316,0.0283813,0.00701904,-0.0213623,0.00915527,0.00610352
117,0,-0.0115967,0.00366211,0.00793457,-0.00274658,0.000610352,0.0241089,0.0201416,0.00732422,0.0274658,-0.0250244,-0.00183105,-0.0140381,-0.0405884
117,1,0.00610352,0.00488281,0.00671387,0.0537109,0.0265503,0.0262451,0.0741577,0.0183105,0.0320435,0.0665283,-0.0234985,0.00671387,-0.00701904
117,2,0.0177002,0.0177002,0.0238037,0.0228882,0.0234985,0.0341797,0.0396729,0.0143433,0.0125122,-0.0393677,-0.0253296,0.00732422,-0.00183105
117,3,0.0238037,0.0186157,0.00762939,0.0244141,0.032959,0.0213623,0.0448608,0.0326538,0.017395,-0.0250244,-0.0201416,0.0177002,0.027771
117,4,0.0222778,-0.0250244,0.0100708,0.03479,0.0387573,0.0201416,0.0366211,0.0723267,0.0283813,0.0201416,-0.0183105,0.0140381,0.022583
118,0,0.0241089,0.00701904,0.00488281,0.0253296,0.0299072,0.0167847,0.0354004,0.015564,0.0497437,0.0189209,-0.0262451,0.00244141,-0.0238037
118,1,0.0231934,-0.00488281,0.010376,0.0308228,0.022583,0.0350952,0.0442505,0.0860596,0.0280762,0.010376,-0.0241089,0.0241089,0.00396729
118,2,0.0161743,0.00671387,-0.0109863,0.0256348,0.0238037,0.0341797,0.0445557,0.0201416,0.0369263,0.00213623,-0.0250244,-0.0384521,0.0115967
118,3,0.0167847,0.00274658,0.00915527,0.0262451,0.022583,0.0350952,0.0292969,0.00854492,0.022583,0.0296021,-0.0213623,0.0283813,0.0164795
118,4,0.0112915,0.0161743,0.00274658,0.0305176,0.0213623,0.0296021,0.0445557,0.00854492,0.0253296,0.00915527,-0.0311279,0.0234985,0.0830078
119,0,0.0350952,0.0195312,-0.0585938,0.0198364,0.0170898,0.0228882,0.0299072,0.0210571,0.0137329,0.0186157,-0.0152588,0.020752,0.0149536
119,1,0.017395,0.00335693,0.00396729,-0.0210571,0.0311279,0.0296021,0.0506592,0.00915527,0.0283813,0.0271606,-0.0204468,0.0201416,0.0195312
119,2,0.038147,0.0283813,0.00152588,-0.00488281,0.0256348,0.0286865,0.0204468,0.0137329,0.0201416,0.0231934,-0.0341797,0.0152588,0.0134277
119,3,0.032959,0.022583,0.032959,0.0170898,0.017395,0.0250244,0.0201416,0.020752,0.0234985,0.0189209,-0.0161743,0.0164795,0.0152588
119,4,0.0296021,0.0247192,0.0253296,0.010376,0.0524902,0.015564,0.0241089,0.0570679,0.015564,0.0317383,-0.00518799,0.0247192,0.0302124
120,0,0.0186157,0.0106812,0.00671387,0.00823975,0.0772095,0.0314331,0.0204468,0.0259399,0.0286865,0.0427246,-0.00640869,0.015564,0.0164795
120,1,0.0125122,0.0204468,0.00579834,0.0137329,0.0317383,0.0238037,0.015564,-0.0378418,0.0469971,0.0192261,-0.0241089,0.0152588,0.0186157
120,2,0.00335693,-0.00488281,0.00274658,0.0189209,0.0402832,0.0177002,0.0128174,-0.00457764,0.0164795,0.0262451,-0.0372314,0.0183105,0.0143433
120,3,0.0292969,0.00457764,0.0140381,0.0671387,0.0152588,0.0177002,0.0579834,0.00518799,0.0305176,0.0241089,-0.0430298,0.0268555,0.012207
120,4,0.0299072,0.0140381,0.0137329,0.0143433,0.0219727,0.00396729,0.0219727,0.015564,0.0466919,0.0167847,-0.0253296,0.0341797,0.0204468
121,0,0.0350952,0.0088501,0.0152588,0.015564,0.00793457,0.0222778,0.0302124,0.027771,0.0289917,0.0292969,0.0231934,0.0161743,0.0170898
121,1,0.0323486,0.00946045,0.0088501,0.0134277,0.0134277,0.020752,0.0280762,0.00854492,0.0259399,0.0320435,-0.0158691,0.0146484,0.0201416
121,2,0.0244141,0.00762939,0.0177002,0.0186157,0.0250244,0.020752,0.0280762,0.0152588,0.0384521,0.0372314,-0.0259399,0.0167847,0.0286865
121,3,0.00274658,0.0210571,0.0012207,0.0338745,0.0247192,0.0112915,0.0375366,0.0259399,0.0198364,-0.0158691,-0.015564,0.0195312,-0.0286865
121,4,0.0140381,0.00366211,0.0262451,0.0128174,0.0189209,0.0228882,0.0286865,0.0128174,0.0262451,0.0140381,-0.0234985,0.0244141,-0.0152588
122,0,0.00823975,0.0112915,0.0262451,0.00732422,0.0164795,0.0146484,0.0256348,0.010376,0.0274658,0.0250244,0.00701904,0.00610352,0.038147
122,1,0.0280762,0.00671387,-0.0241089,0.00335693,0.0283813,0.0579834,0.0320435,0.0180054,0.0283813,0.0143433,-0.0311279,0.0109863,0.0158691
122,2,0.0231934,0.0167847,0.00244141,0.00549316,0.0192261,-0.0134277,0.0253296,0.0213623,0.0244141,0.0375366,-0.00823975,0.0323486,0.00854492
122,3,0.0167847,-0.0314331,0.0134277,0.0128174,0.0314331,0.0283813,0.0177002,0.015564,0.0259399,0.0201416,-0.0213623,0.0280762,0.0177002
122,4,0.0167847,0.00366211,0.0204468,0.0146484,0.0189209,0.0201416,0.0201416,-0.0177002,0.0201416,0.0283813,-0.0320435,0.0259399,0.0308228
123,0,0.0247192,0.0128174,0.0222778,0.0125122,0.0247192,0.0335693,0.0335693,0.0161743,0.00732422,0.0189209,-0.0177002,0.0259399,0.0198364
123,1,0.0363159,0.00274658,0.0222778,0,0.00518799,0.00579834,0.00671387,0.0332642,0.0305176,0.0387573,-0.027771,0.00915527,0.00549316
123,2,0.0253296,0.00610352,0.0180054,0.0088501,0.0244141,0.0341797,0.0695801,0.0109863,0.0253296,0.0234985,-0.0177002,0.0296021,0.0198364
123,3,0.0161743,0.0357056,0.0180054,0.00946045,0.0814819,0.0234985,0.0296021,-0.0115967,0.0280762,0.0238037,-0.0167847,0.0189209,0.0204468
123,4,0.0363159,0.0250244,0.0170898,-0.000915527,0.0234985,0.017395,0.0183105,0.0299072,0.0198364,0.0488281,-0.00488281,0.0131226,-0.00671387
124,0,0.0259399,0.00152588,-0.00305176,0.00732422,0.0265503,0.0308228,0.0213623,0.0247192,0.0445557,0.0274658,0.0152588,0.0158691,0.0216675
124,1,0.0238037,0.00793457,0.0186157,0.0128174,-0.0012207,0.0231934,0.0317383,-0.0326538,0.0305176,0.0262451,-0.0134277,0.03479,0.0170898
124,2,0.0280762,-0.000915527,0.0088501,0.0259399,0.0158691,0.0012207,0.0131226,0.0302124,0.0320435,0.0283813,-0.0198364,0.0540161,0.0164795
124,3,0.0332642,0.0210571,0.0195312,0.0125122,0.00183105,0.0152588,0.0241089,0.0128174,0.0219727,0.0460815,-0.0250244,0.0268555,0.0244141
124,4,0.0253296,0.00152588,0.0314331,0.0012207,0.0323486,0.0302124,0.0268555,0.00823975,0.0152588,-0.010376,-0.022583,0.0137329,-0.0460815
125,0,0.00946045,0.0167847,0.0131226,0.0143433,0.0161743,0.00244141,0.0320435,0.00793457,-0.00366211,0.0408936,-0.0183105,0.0238037,0.0128174
125,1,-0.0283813,0.015564,0.0100708,-0.0405884,0.0183105,0.00427246,0.0195312,0.012207,0.0250244,0.0100708,-0.0299072,0.0280762,0.0366211
125,2,0.0262451,0.0164795,0.0283813,0.0189209,0.0228882,0.0280762,0.0238037,0.0256348,0.0350952,0.0262451,-0.0265503,0.032959,0.00854492
125,3,0.0323486,0.0210571,-0.0262451,0.0222778,0.0271606,-0.027771,0.020752,0.0286865,0.0326538,0.0192261,-0.0314331,0.0256348,0.0149536
125,4,0.022583,0.0134277,0.0100708,0.0106812,0.0137329,0.0177002,0.0323486,0.0183105,0.0228882,-0.0247192,-0.0256348,0.0305176,-0.00976562
126,0,0.0265503,0.00854492,0.0115967,0.0167847,0.0143433,0.0302124,0.0152588,0.00305176,0.0189209,0.0311279,-0.0369263,0.0314331,0.0262451
126,1,0.0335693,0.0137329,0.0152588,0.00671387,-0.00671387,0.00518799,0.0259399,0.0360107,0.0308228,0.0360107,-0.022583,0.0265503,0.0228882
126,2,0.0302124,0.0170898,0.0222778,0.0100708,0.0231934,0.0106812,0.0198364,0.00823975,0.0765991,0.0424194,-0.0384521,0.0515747,0.027771
126,3,-0.0228882,0.0201416,0.0112915,0.0250244,0.0219727,0.0357056,0.0213623,0.0183105,0.0183105,0.022583,-0.0384521,0.0369263,0.0387573
126,4,0.0219727,0.0247192,0.0167847,0.00732422,0.0131226,0.0128174,0.0238037,0.0106812,0.0418091,0.0265503,-0.0253296,0.0231934,0.0256348
127,0,0.0405884,0.0238037,0.0204468,0.0210571,0.00762939,0.0216675,0.0183105,0.0186157,0.0210571,0.0256348,-0.00671387,0.0210571,0.0231934
127,1,0.0311279,0.0180054,0.038147,0.00183105,0.00427246,0.027771,0.0231934,0.0219727,-0.00854492,0.0360107,-0.0177002,0.0915527,0.0244141
127,2,0.0241089,0.00732422,0.0109863,0.0186157,0.0149536,-0.0161743,0.0296021,0.0216675,0.0897217,0.0189209,-0.0241089,0.0350952,0.0231934
127,3,0.0128174,0.0192261,0.0283813,0.0344849,0.0152588,0.0112915,0.0210571,0.010376,0.0320435,-0.0378418,-0.0152588,0.0274658,0.0204468
127,4,0.0231934,0.0372314,0.0152588,0.0219727,0.0115967,0.00854492,0.0152588,0.00793457,0.0289917,0.0228882,-0.0479126,0.0335693,0.0216675
128,0,0.0289917,-0.00366211,0.0582886,0.00244141,0.0204468,-0.0366211,0.010376,0.0244141,0.0354004,0.0457764,-0.043335,0.0698853,0.0344849
128,1,0.0164795,0.0231934,0.017395,0.0177002,0.022583,-0.00244141,0.017395,0.0146484,0.0415039,0.0384521,-0.0405884,0.0170898,0.0192261
128,2,0.0396729,0.0161743,0.015564,0.022583,0.032959,-0.00610352,0.015564,-0.0357056,0.0354004,0.022583,-0.020752,0.0280762,0.0369263
128,3,0.067749,0.0350952,0.0289917,0.00732422,-0.0250244,0.00793457,0.0198364,0.0250244,0.0335693,0.0302124,0.0180054,0.0344849,0.00152588
128,4,-0.0140381,0.0244141,0.0219727,-0.043335,0.00427246,0.0183105,0.000610352,0.0143433,0.0460815,0.0958252,-0.0442505,0.0234985,0.100098
129,0,0.0457764,0.0177002,0.0250244,0.0119019,0.0125122,0.000305176,0.0283813,0.00183105,0.0323486,0.0241089,-0.0265503,0.0152588,0.0088501
129,1,0.0259399,0.0326538,0.0140381,0.00518799,0.0238037,0.0256348,0.0183105,0.00244141,0.0656128,0.0289917,-0.0198364,0.0289917,0.020752
129,2,0.0344849,0.0259399,0.0167847,-0.000610352,0.010376,0.00915527,-0.0289917,0.0189209,0.0372314,0.0515747,-0.0296021,0.0149536,0.0640869
129,3,0.0344849,-0.0262451,0.022583,0.0140381,-0.0244141,0.00793457,0.0167847,0.0256348,0.00854492,0.0372314,-0.0250244,0.0457764,0.0350952
129,4,0.0299072,0.0372314,0.0216675,0.00671387,-0.00946045,-0.00488281,0.00946045,0.00335693,0.0482178,0.0320435,-0.0198364,0.0811768,0.0134277
130,0,0.0326538,0.0320435,0.0134277,0.0158691,0.0134277,0.017395,0.0268555,0.0109863,0.0311279,0.0408936,-0.0262451,0.0241089,-0.00610352
130,1,0.0262451,0.0247192,0.0689697,0.0119019,0.0112915,0.0466919,-0.000610352,0.0140381,0.0302124,0.0274658,-0.0286865,0.0158691,0.0180054
130,2,0.0326538,0.0253296,-0.00427246,-0.00671387,0.00732422,-0.0436401,0.0158691,-0.0100708,0.0106812,0.039978,-0.0241089,0.0292969,0.0256348
130,3,0.03479,0.0390625,0.0201416,0.00793457,0.0161743,0.0119019,-0.00305176,0.0152588,0.0292969,0.0357056,-0.027771,0.0268555,0.0219727
130,4,0.0234985,0.0256348,0.00976562,0.0216675,0.0140381,-0.00274658,0.0177002,0.000610352,0.0112915,0.0326538,-0.0390625,0.0302124,0.0274658
131,0,0.0378418,0.0335693,0.0204468,0.00366211,0.0158691,0.0238037,0.022583,0.00244141,0.0335693,0.0299072,-0.0357056,0.017395,0.0305176
131,1,0.0311279,0.0344849,0.0222778,0.00701904,0.00915527,0.0128174,0.0415039,0.00671387,0.0222778,-0.00274658,-0.0344849,0.0320435,-0.0164795
131,2,0.0308228,0.0778198,0.0292969,0.0149536,0.0131226,-0.00183105,0.0250244,0.010376,0.0088501,0.0259399,-0.0393677,0.0363159,0.0158691
131,3,0.038147,0.0366211,0.027771,0.0177002,0.0177002,0.0201416,0.0210571,0.00274658,0.0186157,0.0308228,-0.0372314,0.0744629,0.010376
131,4,0.0198364,0.0335693,0.0289917,0.0204468,0.00488281,0.0088501,0.00366211,0.0238037,0.0180054,0.0305176,-0.0262451,0.0402832,-0.0311279
132,0,0.00457764,0.0323486,0.0183105,0.0485229,0.0143433,0.0149536,0.0344849,0.00976562,0.022583,-0.0222778,-0.0250244,0.0143433,0.0671387
132,1,0.0302124,0.0360107,0.0204468,0.00244141,-0.00244141,-0.0180054,0.0177002,0.00732422,0.0216675,0.0247192,-0.0268555,0.0259399,0.0341797
132,2,0.0192261,0.0344849,0.0308228,0.0576782,-0.00183105,0.0125122,0.0152588,-0.00183105,0.0271606,0.0256348,-0.0494385,0.0234985,0.022583
132,3,0.0366211,0.0344849,0.0112915,0.0170898,0.0128174,0.0177002,0.0131226,0.0491333,0.0570679,0.0198364,-0.0756836,0.0296021,0.0228882
132,4,0.0253296,0.0296021,0.0234985,-0.022583,0.00854492,0.0170898,-0.00854492,-0.00488281,0.027771,0.0735474,-0.0415039,0.0268555,-0.00976562
133,0,0.0234985,0.032959,0.0308228,0.0167847,0.0158691,0.017395,0.0192261,0.00854492,0.00701904,0.0219727,-0.0302124,0.0231934,0.0161743
133,1,0.0259399,0.0317383,-0.032959,0.0265503,0.0167847,-0.0152588,0.0253296,0.00549316,0.0161743,0.0354004,-0.0363159,0.0149536,0.0177002
133,2,0.0344849,0.0308228,0.0228882,0.0250244,0.022583,0.00579834,0.00915527,0.0204468,-0.045166,0.0302124,-0.0305176,0.0265503,0.0292969
133,3,0.0372314,0.0424194,0.0259399,0.0231934,0.0195312,0.015564,-0.0137329,0.0115967,0.0137329,0.0375366,-0.0256348,0.0201416,0.0421143
133,4,0.0274658,0.0210571,0.017395,0.0256348,0.0186157,0.0234985,0.0177002,0.0271606,0.0152588,0.0280762,-0.0354004,0.0216675,0.0320435
134,0,0.0314331,0.0308228,0.0204468,0.0192261,0.0256348,0.0161743,0.00732422,0.00427246,0.0332642,0.0460815,-0.0454712,0.0323486,0.0253296
134,1,0.0244141,0.0390625,0.06073,0.00915527,0.0177002,0.017395,0.0369263,0.0152588,0.0244141,0.032959,-0.0320435,0.0317383,-0.00732422
134,2,0.0256348,0.0289917,0.00366211,0.0219727,0.020752,0.0216675,0.0125122,0.0158691,0.0439453,0.0344849,-0.0335693,0.0259399,0.0140381
134,3,0.0244141,0.017395,0.0146484,0.00457764,0.0204468,0.00305176,0.0143433,0.0296021,0.00305176,0.0292969,-0.0466919,0.0106812,0.0216675
134,4,0.0201416,0.0372314,0.038147,0.0177002,0.0125122,0.0296021,0.0332642,-0.0231934,0.0222778,0.0216675,-0.0262451,0.0250244,0.0274658
135,0,0.00579834,0.0375366,0.0167847,0.0112915,0.0161743,0.0344849,0.00854492,0.0250244,0.00793457,0.0387573,-0.027771,0.0268555,0.0222778
135,1,0.0299072,0.0228882,0.0189209,0.0280762,-0.00396729,0.0201416,0.0134277,-0.0262451,0.0100708,0.0311279,-0.0100708,0.0448608,0.0253296
135,2,0.0421143,0.039978,0.0393677,0.0158691,0.020752,0.0445557,0.0112915,0.0146484,0.0238037,0.0308228,-0.0222778,0.0280762,0.0234985
135,3,0.0195312,0.0393677,0.0286865,0.0238037,0.0161743,-0.000915527,0.017395,-0.00762939,0.0265503,0.0238037,-0.0231934,0.0292969,0.0274658
135,4,0.0192261,-0.0286865,0.0323486,0.0201416,0.00732422,0.032959,0.00823975,0.0234985,0.0146484,0.0253296,-0.0305176,-0.000610352,0.0283813
136,0,0.0274658,0.0421143,0.0454712,-0.00488281,0.0231934,0.00854492,0.015564,0.00701904,0.015564,0.0271606,-0.0335693,0.0363159,0.0317383
136,1,0.0283813,0.0286865,0.0363159,0.0189209,0.0183105,0.00488281,0.0192261,0.00671387,0.0375366,0.0286865,-0.0222778,0.0363159,0.00549316
136,2,0.0283813,0.0088501,0.0375366,0.0259399,0.0860596,0.0149536,0.00854492,0.0128174,0.0219727,0.0167847,-0.0442505,0.0241089,0.0317383
136,3,0.0299072,0.0262451,0.0280762,0.0177002,0.017395,0.0247192,-0.0430298,0.00976562,0.0222778,0.0588989,-0.0268555,0.0375366,0.0378418
136,4,0.055542,0.0390625,0.0384521,0.0283813,0.020752,0.0396729,0.00823975,0.0164795,0.00427246,0.0177002,-0.0360107,0.0393677,0.0308228
137,0,0.0274658,0.0320435,0.0192261,0.0415039,-0.0134277,0.00732422,0.0189209,-0.00183105,0.0137329,0.0250244,-0.0238037,0.0189209,0.050354
137,1,0.0268555,0.0387573,0.0439453,0.012207,0.015564,0.0213623,0.0167847,0.0088501,0.0299072,0.0445557,-0.0466919,0.0244141,0.0466919
137,2,0.0283813,0.022583,0.0115967,0.0283813,-0.00213623,0.0283813,0.0195312,0.0146484,-0.0375366,0.0204468,-0.0338745,0.0228882,0.0445557
137,3,0.0167847,0.0354004,0.0283813,0.0192261,0.0311279,0.0170898,0.0335693,0.0012207,-0.017395,0.0305176,-0.0360107,-0.00610352,0.050354
137,4,0.0244141,0.0411987,0.022583,0.0274658,0.0167847,0.00183105,0.0146484,0.0088501,0.0198364,0.00946045,-0.0262451,0.0195312,0.06073
138,0,0.0265503,0.0384521,0.0289917,0.0430298,0.0231934,0.0292969,0.0302124,0.00976562,-0.00366211,0.0326538,-0.0308228,0.0302124,0.0323486
138,1,0.0231934,-0.0112915,0.0317383,0.0335693,0.0234985,0.0201416,0.0158691,-0.00610352,0.00732422,0.017395,-0.0354004,0.0354004,0.0247192
138,2,0.0311279,0.0170898,0.0827026,0.0167847,0.010376,0.0152588,0.0204468,0.0238037,0.0253296,0.0274658,-0.0262451,0.0259399,-0.0289917
138,3,0.0292969,0.0521851,0.0344849,0.0357056,0.0192261,0.0164795,0.0112915,0.010376,0.010376,0.0335693,-0.0292969,0.039978,0.0262451
138,4,0.0283813,0.0564575,0.0393677,0.0259399,0.0479126,0.0161743,0.0228882,0.00671387,0.0216675,0.0222778,-0.0152588,0.022583,0.0354004
139,0,0.0222778,0.0354004,0.0292969,0.0308228,0.0289917,0.0128174,0.0427246,0.0119019,0.0167847,0.0231934,0.0100708,0.0250244,0.0314331
139,1,0.0228882,0.0344849,0.0311279,0.090332,0.0140381,0.00823975,0.0134277,0.0106812,0.0125122,0.0198364,-0.0219727,0.032959,0.0363159
139,2,0.000305176,0.0344849,0.0357056,0.0210571,0.00366211,0.00640869,0.0088501,0.00274658,0.0100708,0.0317383,-0.0149536,0.0265503,0.0363159
139,3,0.0253296,0.0375366,0.0262451,0.0454712,0.0479126,-0.000305176,0.0106812,-0.0012207,0.0305176,0.0436401,-0.0326538,0.0378418,0.0378418
139,4,0.0158691,0.0134277,0.0167847,0.0317383,0.0247192,-0.0283813,0.022583,0.00213623,0.0247192,0.015564,-0.00213623,0.0384521,0.0231934
140,0,0.0222778,-0.0256348,0.03479,0.027771,0.055542,-0.00244141,0.0140381,0.000610352,0.0241089,0.0125122,-0.0350952,0.0427246,0.0393677
140,1,0.0259399,0.032959,0.0430298,0.0222778,0.0177002,-0.0106812,0.0231934,0.000915527,0.0250244,0.039978,-0.0344849,0.0387573,0.0354004
140,2,0.0201416,0.0286865,-0.00518799,0.0442505,0.0253296,0.0756836,0.0216675,0,-0.0442505,0.0192261,-0.0296021,0.0411987,0.0189209
140,3,0.0100708,0.0201416,0.0189209,0.0201416,0.0323486,0.00823975,0.0140381,0.0115967,0.0189209,0.0201416,0.00152588,0.0323486,0.0323486
140,4,0.0164795,0.015564,0.017395,0.0311279,0.0265503,0.0115967,0.0332642,0.00244141,0.0201416,0.0491333,-0.0262451,0.0268555,-0.00152588
141,0,0.0494385,0.0231934,0.0213623,0.0360107,0.0283813,-0.00152588,0.0201416,0.0192261,0.00854492,0.0210571,-0.0338745,0.0180054,0.0350952
141,1,0.0344849,0.0265503,0.0524902,0.0415039,0.0161743,-0.00335693,0.0265503,0.0137329,-0.0314331,0.012207,-0.020752,0.032959,0.0341797
141,2,0.020752,-0.0112915,0.0366211,0.0299072,-0.00732422,0.0164795,0.0253296,-0.0634766,0.0222778,0.0219727,-0.0268555,0.0372314,0.00671387
141,3,0.0244141,0.0372314,0.020752,0.0390625,0.0183105,0.0463867,0.0088501,0.0152588,0.0326538,0.0125122,-0.03479,-0.0143433,0.0198364
141,4,0.0250244,0.0363159,0.0363159,0.0396729,0.027771,0.0354004,0.0189209,0.00823975,0.0259399,0.010376,-0.03479,-0.000610352,0.0241089
142,0,0.03479,0.0402832,0.0686646,0.0384521,0.0177002,0.0610352,0.0170898,0.00640869,-0.0283813,0.0415039,-0.0161743,0.0427246,-0.00366211
142,1,0.0167847,0.00793457,0.0836182,0.0439453,0.0344849,0.0704956,0.0262451,0.0216675,-0.00396729,0.0250244,-0.0134277,0.0497437,0.0286865
142,2,0.0131226,0.0234985,0.0344849,0.0405884,0.0241089,0.0567627,0.0213623,0.00915527,0.00152588,0.0140381,-0.00976562,0.0311279,0.03479
142,3,0.0460815,0.0302124,0.0012207,0.039978,0.0201416,0.0872803,0.0201416,0.00732422,0.0140381,0.0140381,-0.0247192,0.0234985,-0.0256348
142,4,0.0216675,0.0338745,0.0384521,0.0363159,0.0778198,0.0479126,0.0192261,0.0509644,0.0170898,0.0213623,-0.0149536,0.0305176,0.020752
143,0,0.0427246,0.0402832,0.022583,-0.0012207,0.0326538,0.0299072,0.0170898,0.0152588,0.0088501,0.0704956,-0.0442505,0.032959,0.0460815
143,1,-0.00732422,0.0268555,0.0259399,0.00427246,0.0201416,0.0408936,-0.0308228,0.000610352,0.00640869,0.027771,-0.0271606,0.0299072,0.0378418
143,2,0.0137329,0.0430298,0.0402832,0.0332642,0.00732422,0.0253296,0.0564575,-0.017395,0.0186157,0.0296021,-0.0463867,0.0125122,0.0320435
143,3,0.00976562,0.027771,0.0280762,0.0100708,0.0143433,0.0357056,0.0363159,0.00549316,0.0302124,0.0274658,-0.0286865,0.0296021,0.0177002
143,4,0.0274658,0.0872803,0.0140381,0.0390625,0.0439453,0.0506592,0.0180054,-0.0454712,0.0286865,0.0259399,-0.0268555,0.0234985,0.0253296
144,0,0.0234985,0.027771,0.032959,0.0323486,0.0396729,0.0228882,0.0283813,-0.0100708,0.00732422,-0.0228882,-0.032959,0.0283813,-0.0311279
144,1,0.0219727,0.0314331,0.0265503,0.0308228,0.0482178,0.0283813,0.0128174,0.0210571,0.0299072,0.0164795,-0.00183105,0.0241089,0.0408936
144,2,0.0283813,0.0259399,0.0201416,0.0421143,0.032959,-0.00701904,0.0183105,0.020752,0.0738525,0.015564,-0.0201416,0.027771,0.0344849
144,3,0.0314331,0.0192261,0.0299072,0.0305176,0.020752,0.0405884,0.0216675,-0.00183105,0.022583,0.0210571,-0.043335,0.010376,0.0366211
144,4,0.0335693,0.0338745,0.022583,-0.0152588,0.0299072,0.0177002,0.027771,0.015564,0.0125122,-0.0152588,-0.0201416,0.0250244,0.0933838
145,0,0.0106812,0.0228882,0.0247192,0.0216675,0.022583,0.0231934,0.0106812,0.00946045,0.0302124,0.0366211,-0.0292969,0.00946045,-0.00579834
145,1,0.0775146,0.0323486,0.0189209,0.0320435,0.0323486,0.0335693,0.0268555,-0.00274658,0.0134277,0.0332642,-0.00671387,0.0167847,0.0244141
145,2,0.0161743,0.0299072,0.0311279,0.020752,0.0201416,0.0161743,0.0350952,0.00640869,0.0158691,0.0299072,-0.0180054,0.0158691,0.0146484
145,3,0.0228882,0.00549316,0.020752,0.0271606,0.0427246,0.0244141,0.020752,-0.00610352,0.0161743,0.0222778,-0.0268555,0.0219727,0.0314331
145,4,0.0445557,0.0430298,0.0271606,0.0128174,0.0790405,0.0241089,0.0506592,0.00640869,0.0299072,0.0195312,-0.0314331,0.0286865,0.0485229
146,0,0.0177002,0.0643921,-0.0112915,0.0204468,0.0375366,0.0222778,0.0222778,-0.00213623,0.0088501,0.0234985,-0.0234985,0.0265503,0.0213623
146,1,0.0296021,0.0292969,0.0378418,0.0219727,0.0167847,0.0354004,0.0292969,-0.00335693,-0.000915527,0.0195312,-0.0244141,-0.00396729,0.0363159
146,2,0.0259399,0.0570679,0.0280762,0.0244141,0.0531006,0.0268555,0.0350952,0.00732422,0.0128174,0.0262451,-0.0195312,0.0323486,0.0457764
146,3,0.0250244,0.0241089,0.0158691,0.0125122,0.0488281,0.045166,0.0192261,-0.00457764,0.00732422,0.0161743,-0.0158691,0.0268555,0.0405884
146,4,0.0189209,0.0238037,0.0323486,0.0238037,0.0152588,-0.00640869,0.0344849,0.00549316,0.0161743,0.010376,-0.00854492,0.0323486,0.0393677
147,0,0.0222778,0.0250244,0.0250244,0.0369263,0.0299072,0.03479,0.0195312,0.0219727,0.0259399,0.0228882,-0.0421143,0.0219727,0.0216675
147,1,0.0238037,0.0170898,0.0363159,0.0338745,0.0244141,0.0238037,0.0302124,0.0134277,0.00640869,0.0131226,-0.0234985,0.00579834,0.0192261
147,2,0.0253296,0.0115967,0.0320435,0.0222778,0.0262451,0.0292969,0.0149536,0.0488281,0.0152588,0.020752,-0.0302124,0.0158691,0.0970459
147,3,0.0320435,0.0186157,0.032959,0.0253296,0.0338745,0.0314331,0.00579834,0.015564,0.0109863,-0.00152588,-0.0198364,0.0271606,0.00793457
147,4,0.0271606,0.0106812,0.0335693,0.0265503,0.0338745,0.0463867,0.00976562,0.0125122,0.0473022,0.0134277,-0.0088501,0.0491333,0.0570679
148,0,0.0253296,0.0192261,0.0357056,0.0256348,0.00457764,0.0509644,0.0247192,-0.0146484,0.00488281,0.0265503,-0.00305176,0.0323486,0.0262451
148,1,0.0183105,0.0143433,0.0683594,0.0396729,0.0402832,0.0378418,-0.00518799,0.00640869,0.0180054,0.038147,-0.00732422,0.0408936,0.0256348
148,2,0.027771,0.00762939,0.0213623,0.0286865,0.0332642,0.0415039,0.0241089,-0.0198364,0.012207,0.0109863,-0.03479,0.00549316,0.0231934
148,3,0.0344849,0.00732422,0.0265503,0.0268555,0.0238037,0.0317383,0.0265503,0.515442,0.00579834,0.00335693,-0.0167847,0.000305176,0.017395
148,4,0.012207,0.0259399,0.0158691,0.0338745,0.00701904,0.0396729,0.0167847,0.194397,0.0201416,0.00274658,-0.0189209,0.0170898,0.0366211
149,0,0.00183105,0.0210571,0.0305176,0.0250244,0.045166,0.0192261,0.0338745,-0.0405884,-0.00640869,0.0302124,-0.0128174,-0.0125122,0.00762939
149,1,0.0280762,0.0299072,0.0582886,0.0167847,0.0210571,0.0296021,0.0177002,-0.0430298,0.0167847,0.0164795,-0.0140381,-0.0100708,0.0323486
149,2,0.0201416,0.0106812,0.0112915,-0.0244141,0.0311279,0.0201416,0.0234985,0.201721,0.0201416,0.0448608,-0.0131226,0.00915527,0.00701904
149,3,0.0195312,-0.0204468,0.0189209,0.022583,0.0436401,-0.202332,0.0271606,-0.00915527,0.0228882,0.020752,-0.0183105,-0.00427246,0.00793457
149,4,0.0137329,0.0125122,0.0216675,0.0238037,0.0299072,-1.0083,0.0375366,-0.0631714,0.0125122,0.00762939,-0.0164795,-0.00976562,0.0167847
150,0,0.0195312,0.0292969,0.0183105,0.0271606,0.0698853,-2.56012,0.0286865,-0.0485229,0.00671387,-0.0305176,-0.0259399,-0.0228882,0.0387573
150,1,0.0253296,-0.0100708,0.017395,0.020752,0.0323486,-2.9541,0.0354004,-0.0445557,0.0231934,-0.0308228,-0.0152588,0.0161743,0.0137329
150,2,-0.00366211,0.0137329,0.0250244,0.0430298,0.0253296,-2.83722,0.0363159,-0.0933838,0.0149536,-0.00671387,-0.0161743,-0.0119019,0.00793457
150,3,0.0109863,0.0302124,0.039978,0.0259399,0.0363159,-2.74841,0.0186157,-0.0268555,0.0341797,0.017395,-0.0164795,0.0296021,0.0167847
150,4,0.0219727,0.0265503,0.0323486,-0.0161743,0.0610352,-2.6413,0.0616455,-0.0360107,0.0296021,0.0527954,-0.0119019,0.0344849,0.0262451
151,0,0.0274658,0.0137329,-0.020752,0.0302124,0.0463867,-2.56256,0.0274658,-0.0231934,0.0195312,0.0405884,-0.0256348,0.020752,0.0338745
151,1,0.0137329,0.0125122,0.0299072,0.0213623,0.0161743,-2.46765,0.0262451,-0.0228882,0.0228882,0.0262451,-0.0247192,0.0299072,0.0280762
151,2,0.0143433,-0.00396729,0.0320435,0.017395,0.0366211,-2.35352,0.0302124,0.0112915,0.0512695,0.0213623,-0.0292969,0.0250244,0.0210571
151,3,0.015564,0.00793457,-0.0170898,0.0390625,0.0366211,-2.27142,0.0210571,-0.0183105,0.0231934,0.020752,-0.0241089,0.0177002,0.0357056
151,4,0.0131226,0.0195312,0.0112915,0.0186157,0.0515747,-2.20184,-0.00335693,-0.0100708,0.0189209,0.00152588,-0.0265503,0.00427246,0.0335693
152,0,0.0164795,0.0250244,0.017395,0.0292969,0.0494385,-2.12738,0.0460815,0.00457764,0.0247192,0.027771,-0.0289917,0.0259399,0.0906372
152,1,0.0265503,0.020752,0.0183105,0.0320435,0.0390625,-2.0578,-0.00946045,-0.0119019,0.0161743,0.0183105,-0.0106812,-0.00610352,0.0500488
152,2,0.0280762,0.0247192,0.0222778,0.0146484,0.0241089,-1.91956,0.0357056,0.00366211,0.00152588,0.0183105,-0.0204468,-0.0366211,0.0161743
152,3,0.0115967,0.032959,0.0219727,0.0344849,0.032959,-1.91406,0.0271606,0.0405884,0.0198364,0.0326538,0.00396729,0.0271606,0.0183105
152,4,0.0112915,0.032959,0.0268555,0.0238037,0.0390625,-1.30066,0.032959,0.0106812,0.0088501,0.0338745,-0.0241089,0.0375366,0.0177002
153,0,0.022583,0.0204468,0.0125122,0.0167847,0.0350952,-0.794373,0.0244141,0.00152588,0.0286865,0.0268555,0.0216675,0.0653076,0.0213623
153,1,0.00549316,0.00671387,0.0360107,0.0149536,0.0265503,-0.389709,0.0418091,0.0131226,0.0375366,0.0137329,-0.00640869,0.09552,0.0305176
153,2,0.0332642,0.000305176,0.0405884,0.0320435,0.0326538,-0.106812,0.0112915,0.00549316,0.000305176,-0.000915527,-0.00335693,0.0192261,0.0375366
153,3,0.0204468,0.00854492,0.020752,0.0247192,0.0210571,0.09552,0.0552368,-0.00610352,-0.0012207,0.0268555,-0.0195312,-0.0244141,0.0170898
153,4,0.00457764,0.00976562,0.0234985,0.0283813,0.0421143,0.352173,0.0274658,0.0354004,-0.00183105,0.0286865,0.0012207,0.000610352,0.0140381
154,0,0.00305176,0.0183105,0.0482178,0.0302124,0.0390625,0.580444,0.0341797,0.0195312,0.0164795,-0.0125122,-0.0198364,0.012207,0.0146484
154,1,0.00152588,0.0088501,0.0216675,0.0299072,0.0177002,0.556946,0.00762939,-0.00213623,0.00976562,0.0143433,0.0088501,0.0143433,0.0296021
154,2,0.0183105,0.00671387,0.0302124,0.015564,0.0646973,0.627441,0.0378418,0.0231934,0.0189209,0.0183105,0.0088501,0.0125122,0.020752
154,3,0.015564,0.0131226,0.0360107,0.0280762,0.0265503,0.74646,0.0292969,0.0152588,0.00396729,0.0109863,-0.0198364,0.0210571,0.00518799
154,4,0,0.0302124,0.0274658,0.0564575,0.0509644,0.893555,0.0897217,0.0180054,0.0115967,0.0692749,0.0186157,0.0292969,0.017395
155,0,0.0292969,0.0158691,0.0231934,0.00946045,0.0247192,1.01288,0.0210571,0.00610352,0.00915527,-0.00640869,-0.0164795,0.0250244,0.0244141
155,1,0.0149536,0.0244141,0.0247192,0.0256348,0.0366211,1.1969,0.0271606,0.0192261,0.0244141,0.0149536,-0.0274658,0.0253296,0.0338745
155,2,0.0195312,0.039978,0.00732422,0.0112915,0.0494385,1.31042,0.0759888,0.00305176,0.0253296,0.0286865,-0.0338745,0.0256348,0.0268555
155,3,0.0198364,-0.0158691,0.0311279,0.012207,0.000915527,1.24878,0.0241089,0.0488281,0.00366211,0.0234985,-0.0274658,0.0234985,0.0253296
155,4,0.017395,0.0152588,0.00732422,0.0100708,0.0387573,1.40442,0.0219727,0.020752,0.0634766,0.0012207,-0.0286865,0.0140381,0.0369263
156,0,0.0219727,0.012207,0.0109863,0.012207,0.0140381,1.58478,0.0335693,0.0183105,0.00183105,-0.0320435,-0.015564,0.00335693,0.0195312
156,1,0.0167847,0.00915527,0.0665283,0.0259399,0.0283813,1.65497,0.0128174,0.0350952,0.0204468,0.00152588,-0.0158691,0.0286865,0.0296021
156,2,0.00762939,0.0140381,-0.0424194,0.0213623,0.0231934,2.40509,0.0280762,0.0241089,0.0436401,0.00976562,-0.0167847,0.0521851,0.0262451
156,3,0.0189209,0.0247192,0.0299072,0.0299072,0.0247192,3.30719,0.0296021,0.0152588,0.00579834,0.00274658,-0.00518799,0.0436401,0.0161743
156,4,0.00579834,0.0195312,0.0244141,0.00518799,0.0198364,3.32031,0.0421143,0.0195312,0.0131226,0.0439453,-0.00823975,0.0354004,0.0106812
157,0,0.00915527,0.0671387,0.0234985,0.022583,-0.000610352,3.32703,0.0317383,0.0314331,0.015564,-0.0418091,-0.0201416,0.0463867,0.0296021
157,1,0.0238037,0.0106812,0.0167847,-0.0195312,0.00183105,3.23944,0.0439453,0.0402832,0.0134277,-0.0872803,-0.0238037,0.0241089,-0.0561523
157,2,0.0280762,0.0158691,0.0222778,0.0302124,0.032959,3.33313,0.00976562,0.0231934,0.0167847,-0.0827026,-0.0305176,0.00793457,0.0219727
157,3,0.0100708,0.00518799,0.0158691,0.0335693,0.0247192,1.30188,0.0424194,0.0274658,-0.0115967,-0.0421143,-0.0302124,-0.00274658,0.0204468
157,4,0.017395,0.0161743,0.0213623,0.03479,0.0216675,1.29791,-0.00579834,0.0311279,0.022583,-0.120544,-0.0259399,0.0292969,0.0167847
158,0,0.0747681,0.0109863,0.0274658,-0.00610352,0.0286865,-0.328369,0.0527954,0.0195312,0.0292969,-0.218811,-0.0326538,0.0177002,-0.0192261
158,1,0.0219727,0.00793457,0.0115967,0.0424194,0.0183105,2.13074,0.0326538,0.03479,0.00915527,-0.0784302,-0.0125122,0.0387573,-0.000305176
158,2,-0.0152588,0.0192261,-0.00732422,0.0427246,0.027771,3.25836,0.0259399,0.0387573,0.0360107,-1.12732,-0.0106812,0.00274658,-0.000610352
158,3,0.0164795,0.00854492,-0.012207,0.0286865,-0.0134277,3.17444,0.0219727,0.022583,0.0231934,-3.04718,-0.0363159,0.00274658,-0.0189209
158,4,0.0683594,0.0286865,0.017395,0.0430298,0.00518799,2.77802,-0.0262451,0.0283813,0.0323486,-2.76733,-0.0170898,0.027771,0.0128174
159,0,0.0161743,0.0146484,0.0125122,0.0344849,0.022583,0.819092,0.0268555,0.0341797,0.0186157,-2.81006,-0.0140381,0.0231934,0.010376
159,1,0.0274658,0.00976562,0.0158691,0.0112915,0.0228882,-0.19989,0.0372314,0.0296021,0.0186157,-0.679321,-0.0195312,0.012207,0.0183105
159,2,0.0167847,0.0439453,0.0286865,0.0204468,-0.00152588,-0.492554,0.0311279,0.032959,0.0247192,0.202332,-0.00946045,0.0106812,0.0262451
159,3,0.0320435,0.0164795,0.0222778,0.0198364,0.0305176,-0.634766,0.0369263,0.0308228,0.0253296,0.971985,-0.0164795,0.00335693,-0.0476074
159,4,0.0210571,0.0183105,0.0201416,0.0219727,0.0335693,0.784302,0.0241089,0.0384521,0.0100708,-1.30615,0.00213623,0.00732422,0.00640869
160,0,0.0204468,0.0204468,0.0219727,0.022583,0.022583,-0.440979,0.0274658,0.0128174,0.0299072,0.973511,-0.0012207,-0.00518799,0.0192261
160,1,-0.0143433,0.0149536,0.0241089,0.0164795,0.0137329,-1.16699,0.038147,0.0204468,0.00946045,-1.89301,-0.0088501,0.00152588,0.0241089
160,2,0.0198364,0.00671387,0.00396729,0.0146484,0.0259399,-0.916443,0.0265503,0.0259399,0.00305176,-0.92804,-0.00915527,0.0012207,0.0146484
160,3,0.020752,0.0427246,0.00305176,0.00915527,0.0332642,-0.834045,0.0375366,0.0305176,0.0292969,-0.228882,-0.00152588,0.0253296,-0.000305176
160,4,0.00762939,0.0747681,0.0216675,0.0213623,0.0595093,-0.834961,0.0289917,-0.0119019,0.0213623,0.631104,-0.015564,0.0308228,0.0143433
161,0,-0.0143433,0.00915527,0.0210571,0.0106812,0.0149536,-0.926819,0.0314331,0.0521851,0.0180054,-1.04187,-0.0131226,0.0088501,0.000305176
161,1,0.0262451,0.0418091,0.0204468,0.00793457,0.078125,-0.540466,0.0289917,0.0579834,0.0265503,-1.1972,-0.0137329,0.0198364,0.00762939
161,2,0.0216675,0.0238037,0.0170898,0.00244141,0.0213623,-0.367432,0.010376,0.0228882,0.0238037,-0.582581,-0.0140381,0.0241089,0.0201416
161,3,0.0149536,0.0210571,0.0161743,0.0234985,0.0814819,-0.218506,0.0302124,-0.0247192,0.0402832,-2.1051,-0.0125122,0.00274658,-0.010376
161,4,0.0286865,-0.000305176,0.0158691,0.0177002,0.0189209,-0.288696,0.0112915,0.0411987,0.0805664,-1.91254,-0.0161743,0.0360107,0.00793457
162,0,0.0128174,0.0268555,0.0137329,0.0317383,0.0152588,-0.122986,0.0143433,0.0427246,0.0265503,-1.38702,-0.0259399,0.038147,-0.00915527
162,1,0.0186157,0.0213623,0.0286865,0.010376,0.0143433,1.86829,0.0442505,0.0326538,0.0350952,-1.10779,-0.0244141,0.0112915,0.0112915
162,2,0.0183105,0.0189209,0.00762939,0.0210571,-0.0387573,2.28241,0.0231934,0.0845337,0.0256348,-1.36047,-0.0244141,-0.0134277,0.0143433
162,3,0.0817871,0.0112915,0.0234985,-0.00549316,0.0195312,0.785828,0.0192261,0.0238037,0.0265503,1.11084,-0.0274658,0.0268555,0.0405884
162,4,0.0274658,0.0216675,0.00244141,0.0250244,0.0140381,1.45233,0.0454712,0.0601196,0.0234985,-0.0802612,-0.0588989,0.0219727,0.0317383
163,0,0.0231934,0.0268555,0.0167847,0.0177002,0.0180054,2.37762,0.0299072,0.0204468,0.0140381,0.043335,-0.0311279,0.00976562,-0.012207
163,1,0.0274658,0.0158691,0.0299072,0.0360107,0.0170898,2.37946,0.0189209,0.0320435,0.0149536,0.605774,-0.0134277,-0.000915527,-0.0201416
163,2,0.0167847,0.0149536,-0.00732422,0.0350952,0.0262451,2.30927,0.0189209,0.0448608,0.0384521,0.183105,-0.0186157,-0.00366211,-0.0131226
163,3,0.0198364,0.0292969,0.00518799,0.015564,0.0152588,2.10632,0.0299072,0.0494385,0.0442505,0.801697,-0.0201416,0.0177002,-0.0183105
163,4,0.0271606,0.0320435,-0.038147,0.0393677,0.0186157,1.78192,-0.0195312,0.0418091,0.0231934,0.314026,-0.0320435,0.0250244,-0.0158691
164,0,0.0262451,0.0311279,0.0134277,0.0250244,0.0158691,1.62903,0.0491333,0.0210571,-0.00518799,1.091,-0.0234985,0.0244141,-0.00427246
164,1,0.0198364,0.0109863,0.0170898,0.00793457,-0.00579834,1.37115,0.0180054,0.0820923,0.0198364,2.32269,-0.0201416,-0.00457764,-0.015564
164,2,0.0219727,0.00305176,0.0100708,0.00671387,0.0231934,1.14777,0.0363159,0.032959,0.0137329,2.17834,-0.0238037,-0.00335693,0.0213623
164,3,0.0158691,0.0100708,0.0213623,0.0149536,0.0210571,0.96405,0.0390625,0.0149536,0.0250244,1.59637,-0.0405884,0.0213623,-0.012207
164,4,0.0271606,-0.027771,0.0192261,0.0268555,-0.0344849,0.832825,0.0335693,-0.0012207,0.0256348,1.35651,-0.0363159,-0.00457764,0.0491333
165,0,0.0238037,0.0167847,0.00732422,0.0158691,0.00671387,0.670471,0.0317383,0.0662231,0.0274658,1.1673,-0.03479,0.0393677,-0.00183105
165,1,-0.0439453,0.0112915,0.0219727,0.00732422,0.00854492,0.4953,0.0244141,-0.00305176,0.0372314,1.3913,-0.0445557,0.0341797,0.0320435
165,2,0.0170898,0.0280762,0.00762939,0.0152588,0.0241089,0.397949,0.0238037,0.0653076,0.0292969,1.54022,-0.0653076,0.0271606,0.00854492
165,3,0.0131226,0.00793457,0.00152588,0.0192261,0.0186157,0.307617,0.0244141,0.0604248,0.0515747,0.914612,-0.0271606,0.00640869,0.0109863
165,4,0.0204468,0.0140381,0.0234985,0.0201416,0.0335693,0.189209,0.0259399,0.0369263,0.0332642,1.00525,-0.06073,0.03479,0.00793457
166,0,0.0219727,0.0201416,0.0222778,0.022583,0.0140381,0.151672,0.0158691,-0.00671387,0.0466919,1.34033,-0.0335693,-0.00671387,0.0308228
166,1,-0.00579834,0.0137329,0.00610352,0.0170898,0.0250244,0.148926,0.0289917,0.00579834,0.0460815,1.22528,-0.0219727,0.0204468,-0.0177002
166,2,0.0164795,0.0146484,0.0540161,0.00152588,0.00854492,0.0405884,0.0289917,0.00457764,0.0360107,1.27319,-0.0241089,0.0195312,0.00183105
166,3,0.0195312,0.0305176,0.0143433,0.00793457,0.00305176,0.050354,0.0259399,0.127869,0.0280762,1.33759,-0.0247192,0.0259399,-0.0125122
166,4,0.0222778,0.032959,0.00457764,0.0177002,0.0265503,0.0366211,0.0366211,0.027771,0.0296021,1.10107,-0.0384521,0.0228882,-0.0222778
167,0,0.0283813,0.0271606,0.00183105,0.0119019,0.022583,-0.0305176,0.0238037,0.0720215,0.0405884,0.672302,-0.0656128,0.0128174,-0.0158691
167,1,0.0323486,0.0149536,0.0686646,0.012207,0.0177002,-0.0848389,0.0326538,0.0140381,0.0161743,1.48254,-0.0418091,0.0253296,-0.00518799
167,2,0.0170898,0.0531006,0.0201416,0.0140381,0.0582886,-0.125427,0.0308228,0.0247192,0.0238037,0.892334,-0.0344849,0.0231934,-0.0115967
167,3,0.0238037,0.0231934,0.015564,0.0299072,0.0296021,-0.204773,0.0332642,0.423279,0.0671387,1.30371,-0.0418091,0.0473022,0.00427246
167,4,0.0286865,0.0149536,0.00732422,0.0201416,0.0204468,-0.220032,0.0231934,0.132751,0.038147,1.21002,-0.0427246,0.0186157,0.00549316
168,0,0.0250244,0.0241089,0.022583,0.0210571,0.0256348,-0.305786,0.0341797,-0.0622559,0.0622559,0.169067,-0.0198364,0.0247192,0.00732422
168,1,0.0186157,0.0183105,-0.0262451,0.0247192,0.0149536,-0.340271,0.0354004,0.172119,-0.0595093,0.19928,-0.020752,-0.00732422,0.00549316
168,2,0.0170898,0.0308228,0.0134277,0.0299072,0.0369263,-0.319824,0.0253296,0.0213623,0.0140381,0.122986,-0.0332642,0.0326538,0.0119019
168,3,0.0384521,0.0253296,0.0231934,0.0250244,0.0146484,-0.359497,0.0180054,0.241089,-0.00305176,0.153198,-0.0390625,0.0238037,-0.00213623
168,4,0.0335693,0.0662231,0.00946045,0.0250244,0.0546265,-0.368042,0.0274658,-0.0839233,-0.0213623,0.135498,-0.0363159,0.0167847,0.0216675
169,0,0.0494385,0.0244141,0.0137329,0.0732422,0.0210571,-0.391541,0.0439453,-0.0958252,-0.0115967,0.0415039,0.00335693,0.0366211,0.0732422
169,1,0.0280762,0.0137329,0.0170898,0.00823975,0.00823975,-0.420227,0.0320435,-0.085144,-0.010376,0.105591,-0.0296021,0.0271606,0.0408936
169,2,-0.00915527,0.00579834,0.015564,-0.00823975,0.0149536,-0.441284,0.0305176,-0.0576782,-0.0164795,-0.00854492,-0.0238037,0.00457764,0.0341797
169,3,0.0628662,0.000610352,0.0210571,0.0408936,0.0161743,-0.458069,0.0125122,0.288391,0.000610352,-0.0262451,-0.0222778,0.0259399,0.0506592
169,4,0.0259399,0.0650024,0.0158691,0.0140381,-0.0241089,-0.502014,0.027771,-0.0115967,-0.000610352,0.119629,-0.0131226,0.017395,0.0210571
170,0,0.0326538,0.0198364,0.0204468,0.0714111,0.0296021,-0.50415,-0.0253296,-0.0509644,0.00549316,0.124207,-0.0354004,0.0234985,0.0140381
170,1,0.0408936,0.0387573,0.00610352,0.00732422,0.0180054,-0.510559,0.0167847,-0.0299072,0.0292969,-0.0363159,-0.0405884,-0.00976562,0.00183105
170,2,0.0344849,0.0201416,0.0228882,0.017395,0.00793457,-0.531921,0.0268555,-0.0952148,0.0268555,-0.0134277,-0.0106812,0.00610352,0.015564
170,3,0.0302124,0.0253296,0.0238037,0.0189209,0.0213623,-0.859375,0.0265503,-0.0775146,0.0146484,0.122986,-0.0177002,0.0186157,0
170,4,0.0793457,0.0357056,0.0112915,0.0592041,0.0186157,-0.872498,0.0479126,-0.0744629,0.0231934,-0.0213623,-0.0140381,0.0152588,0.057373
171,0,0.0357056,0.022583,0.0158691,0.0228882,0.020752,-0.756531,0.00701904,-0.0509644,0.0256348,-0.281677,-0.0219727,0.0335693,0.0253296
171,1,0.0311279,0.0311279,0.0100708,0.00701904,0.0195312,-0.539551,0.0286865,0.0466919,0.0210571,-0.497131,-0.00183105,0.0305176,0.000305176
171,2,0.0378418,0.0372314,0.00366211,0.0244141,0.0119019,-0.772095,0.00671387,-0.00152588,-0.00305176,-0.369263,-0.0161743,0.067749,0.0125122
171,3,0.0265503,0.0204468,0.0152588,0.0167847,0.0167847,-0.545959,0.0146484,-0.0692749,0.0415039,-0.588989,-0.0170898,0.0274658,0.0274658
171,4,0.0320435,0.0387573,0.0186157,0.022583,0.0222778,-0.417786,0.0366211,-0.0653076,0.0436401,-0.486755,-0.0195312,0.0177002,0.0216675
172,0,0.0238037,0.0289917,0.0189209,0.0164795,0.0283813,-0.391846,0.0115967,0.0134277,0.0723267,-0.0408936,-0.0170898,0.0540161,0.022583
172,1,0.017395,0.0250244,0.00244141,0.020752,0.015564,-0.392761,0.0164795,1.02295,0.0488281,-0.253296,-0.0186157,0.0424194,0.0137329
172,2,0.0289917,0.0274658,0.017395,-0.0012207,0.00579834,-0.420837,0.0128174,1.57623,0.0418091,-0.219116,-0.0323486,0.0296021,0.0250244
172,3,0.0283813,0.0228882,0.0286865,0.00244141,0.0216675,-0.405579,0.0241089,0.449829,0.0595093,0.622559,-0.0747681,0.0424194,0.0164795
172,4,0.0390625,0.0125122,0.0125122,-0.00335693,0.020752,-0.402222,0.017395,0.969238,0.0448608,0.504761,-0.0317383,0.0524902,0.043335
173,0,0.0274658,0.0341797,0.00823975,0.00274658,0.093689,-0.407104,0.0222778,2.83325,0.0213623,-0.290527,-0.0390625,0.0634766,0.0332642
173,1,0.0161743,0.0140381,0.0112915,-0.0106812,-0.00274658,-0.378418,0.0271606,0.879211,0.0405884,0.0292969,-0.0222778,0.0384521,0.0411987
173,2,0.0283813,0.012207,0.020752,0.00823975,0.0204468,-0.375061,0.0302124,1.18164,0.0296021,-0.432129,-0.0341797,0.0231934,0.0283813
173,3,0.0238037,0.0106812,0.0262451,0.0549316,0.00640869,-0.360413,0.0146484,1.09161,0.0262451,0.744934,-0.0421143,-0.00732422,0.0115967
173,4,0.00396729,0.0234985,0.0210571,0.0314331,0.0177002,-0.371704,0.0292969,0.205688,0.0262451,0.551758,-0.0311279,-0.038147,0.0360107
174,0,0.0219727,0.00305176,0.0149536,0.0256348,-0.0131226,-0.357056,0.0259399,0.507507,0.0213623,-0.319519,-0.0372314,-0.0268555,0.0323486
174,1,0.0195312,0.0430298,0.0219727,-0.00762939,0.000610352,-0.355225,0.0210571,-0.192261,0.0177002,-0.651245,-0.03479,-0.00427246,-0.0170898
174,2,0.0323486,0.0775146,0.0274658,0.0112915,0.0393677,-0.322876,0.0195312,0.932007,0.0311279,-0.6604,-0.0430298,0.0128174,0.0241089
174,3,0.0302124,0.0259399,0.0186157,0.027771,0.0125122,-0.336609,0.0195312,0.148621,0.0421143,-0.535278,-0.0366211,0.0402832,0.0643921
174,4,0.0262451,0.0378418,0.0192261,0.0250244,0.00183105,-0.310974,0.0161743,-1.43738,0.0201416,-0.572205,-0.0506592,0.0552368,0.062561
175,0,0.0183105,0.0256348,0.0283813,0.0259399,0.0109863,-0.285645,0.0357056,1.52557,0.00518799,-0.529785,-0.0335693,0.0289917,0.0247192
175,1,0.0335693,0.0192261,0.0201416,0.039978,0.00488281,-0.309143,0.0296021,-0.675354,0.0308228,-0.656433,-0.0344849,0.0216675,0.0509644
175,2,-0.0170898,0.0201416,0.0292969,0.0256348,0.00915527,-0.285034,0.015564,-1.18713,0.0152588,-0.706482,-0.0448608,0.0460815,0.045166
175,3,0.0286865,0.0204468,0.0161743,0.0479126,0.015564,-0.318909,0.0195312,-1.20117,0.0292969,-0.713196,-0.032959,0.0396729,0.0427246
175,4,-0.0241089,-0.00457764,0.0335693,0.0769043,0.00640869,-0.306702,0.0375366,1.72638,0.0167847,-0.509644,-0.0366211,0.0216675,0.0827026
