Devices
1000
,,Myon - Voltage,,,,,,,,,,,,,
Frame,Sub Frame,GC-M,TA,SOL,VM,VL,RF,BF,ST,GLUT-M,Gracilis,EO,GC-L,Semimembranosus
,,V,V,V,V,V,V,V,V,V,V,V,V,V
1,0,0.0418091,0.032959,0.0354004,0.0305176,0.0326538,0.0250244,0.0213623,0.00335693,0.0210571,-0.0683594,-0.0585938,0.0332642,0.0247192
1,1,0.027771,0.0280762,0.0112915,0.0357056,0.022583,0.0128174,0.00274658,0.0106812,0.0234985,-0.0802612,-0.0262451,-0.0292969,0.0283813
1,2,0.0531006,0.0350952,0.017395,0.00549316,0.0201416,0.010376,0.0262451,-0.012207,0.0222778,-0.0857544,-0.0393677,0.0183105,0.0314331
1,3,0.0271606,0.0384521,0.0238037,0.0180054,0.0268555,0.000610352,0.0244141,-0.00610352,0.0115967,-0.0631714,-0.0268555,0.0228882,0.0454712
1,4,0.0372314,0.039978,0.0445557,0.0286865,0.0341797,0.0012207,0.0302124,-0.00244141,0.0109863,-0.0744629,-0.0332642,0.0390625,0.0488281
2,0,0.0289917,0.0216675,0.0265503,0.0314331,0.0302124,0.00701904,0.0234985,0.0115967,0.0216675,-0.111389,-0.0253296,0.0259399,-0.010376
2,1,0.0445557,0.038147,0.0268555,0.00488281,0.0164795,0.0100708,-0.0445557,-0.0161743,0.0134277,-0.118713,-0.0158691,0.0250244,0.0283813
2,2,0.0332642,0.0259399,0.0268555,0.0366211,0.0268555,0.010376,0.00762939,-0.00518799,0.00640869,-0.0686646,-0.0283813,0.0305176,0.0234985
2,3,0.0402832,0.0271606,0.0491333,0.0137329,0.0234985,-0.027771,0.0201416,0.0115967,-0.0384521,-0.050354,-0.0292969,0.0134277,0.0390625
2,4,0.03479,0.0341797,0.0320435,0.0216675,0.0198364,0.0088501,0.0128174,0.00610352,0.017395,-0.0518799,-0.0216675,0.017395,0.0357056
3,0,0.0323486,0.0244141,0.00793457,0.0460815,0.0311279,0.0140381,0.0204468,0.00915527,0.020752,-0.0665283,-0.0299072,0.0265503,0.0268555
3,1,0.0436401,0.0296021,0.0540161,0.0323486,0.0308228,0.012207,0.0262451,0.0149536,0.0378418,-0.0473022,-0.0253296,0.0350952,0.0314331
3,2,0.0244141,0.0469971,0.0326538,0.0442505,0.0100708,0.015564,0.0332642,0.0286865,0.00732422,-0.032959,-0.0408936,0.0296021,0.0299072
3,3,0.0527954,0.0335693,0.0311279,0.0228882,-0.017395,0.0234985,0.0146484,0.00976562,0.0131226,-0.0332642,-0.0100708,0.0164795,0.0396729
3,4,0.022583,0.00793457,0.0210571,0.020752,0.0341797,-0.00549316,0.0186157,0.0170898,0.0134277,-0.0323486,-0.0244141,0.0317383,0.015564
4,0,0.0213623,0.0335693,0.032959,0.0524902,0.00701904,0.0268555,0.0109863,0.00854492,0.00427246,-0.0302124,-0.0265503,0.0161743,0.050354
4,1,0.0292969,-0.0314331,0.0393677,0.032959,0.0601196,0.0253296,0.0161743,0.0222778,0.00854492,-0.0466919,-0.0326538,0.00396729,0.0201416
4,2,0.032959,0.0280762,0.0930786,0.043335,0.0250244,0.0424194,0.0219727,0.0146484,0.0125122,-0.0384521,-0.0170898,0.0180054,0.0323486
4,3,0.0210571,0.0372314,0.0378418,0.015564,0.0469971,0.0265503,-0.00183105,0.0244141,0.0204468,-0.0134277,-0.0183105,0.00732422,0.0372314
4,4,0.0512695,0.0427246,0.0378418,0.0442505,0.0219727,0.0234985,-0.0170898,0.0161743,0.0115967,-0.0299072,-0.0302124,0.0286865,-0.0335693
5,0,0.0222778,0.0332642,0.0302124,0.0265503,0.0317383,0.0189209,0.0250244,0.0164795,0.0256348,-0.0372314,-0.0271606,0.0274658,0.0314331
5,1,0.038147,0.0195312,0.0283813,0.0222778,0.0213623,0.0244141,0.0222778,0.0198364,0.000305176,-0.0204468,0.00579834,0.0360107,0.027771
5,2,0.0213623,-0.000610352,0.0296021,0.0405884,0.0262451,0.0350952,0.0170898,0.015564,0.0152588,-0.0311279,-0.0231934,-0.00579834,0.0357056
5,3,0.0341797,0.0280762,0.0488281,0.0299072,0.0320435,0.0143433,0.0308228,0.0247192,0.0128174,-0.104675,-0.0189209,0.0271606,-0.0012207
5,4,0.0292969,0.022583,0.0396729,0.0274658,0.0219727,0.0357056,0.00976562,0.00915527,-0.0012207,-0.00762939,-0.0320435,-0.0332642,0.0396729
6,0,0.0387573,0.0384521,0.0427246,0.0384521,0.0408936,0.027771,0.00976562,0.0228882,0.0112915,-0.0152588,-0.0296021,0.0234985,-0.0149536
6,1,0.0149536,0.0170898,0.0134277,0.0213623,0.0234985,0.0286865,0.0427246,0.0231934,0.0140381,-0.0430298,-0.0250244,0.0296021,0.00274658
6,2,0.0262451,0.012207,0.0338745,0.0152588,0.0415039,0.0177002,0.0216675,0.0268555,0.00213623,-0.015564,-0.0238037,0.0497437,0.0805664
6,3,0.03479,0.0183105,0.0338745,0.0302124,0.0213623,0.0314331,0.0177002,0.0198364,0.00823975,0.00610352,-0.0256348,0.0216675,0.0234985
6,4,0.0256348,0.0268555,0.0442505,0.0238037,0.0238037,0.0354004,0.0228882,0.00915527,0.0152588,-0.00427246,-0.0213623,-0.00732422,0.0491333
7,0,0.0241089,0.00152588,0.0201416,0.0408936,0.0164795,0.0256348,0.0311279,0.0292969,0.0140381,-0.0115967,-0.0183105,0.0201416,0.0253296
7,1,0.0265503,0.0189209,0.0674438,0.0323486,0.0228882,0.083313,0.010376,0.0143433,0.0515747,0.000610352,-0.0128174,0.0265503,0.0234985
7,2,0.027771,-0.0128174,0.0344849,0.0283813,0.06073,0.0442505,0.0265503,0.0479126,0.00640869,-0.0106812,-0.0247192,0.0140381,0.0421143
7,3,0.0177002,-0.0100708,0.0411987,0.0320435,-0.0222778,0.0289917,0.022583,0.00762939,-0.00976562,0.00335693,-0.0183105,0.0164795,0.0186157
7,4,0.0262451,0.020752,0.0167847,0.0216675,0.0790405,0.0210571,0.0149536,0.020752,0.00183105,0.00854492,-0.0418091,0.00946045,0.0378418
8,0,0.0170898,0,0.0299072,0.0332642,0.0717163,0.0262451,0.022583,0.0613403,0.0161743,-0.00457764,-0.0213623,0.0125122,0.0222778
8,1,0.0180054,0.0262451,0.000915527,0.0296021,0.0323486,-0.00671387,0.0164795,0.0271606,0.0283813,0.0134277,-0.027771,0.0717163,0.0360107
8,2,0.032959,0.03479,0.0387573,0.0247192,0.0259399,0.0302124,0.0152588,0.015564,0.0115967,0.0100708,-0.00640869,0.0302124,0.0314331
8,3,0.0228882,0.0289917,-0.012207,0.0283813,0.0335693,0.0796509,-0.000915527,0.0204468,0.0137329,0.000305176,-0.0189209,0.0131226,0.0170898
8,4,0.0198364,0.0360107,0.0457764,0.0326538,0.03479,0.0576782,0.0802612,0.0350952,-0.000610352,-0.0161743,-0.0189209,0.0338745,0.0344849
9,0,0.0125122,0.027771,0.0341797,0.0219727,0.0460815,0.0265503,0.027771,-0.00274658,0.00793457,0.00488281,-0.0164795,0.0241089,0.0134277
9,1,0.0109863,0.0302124,0.0299072,0.0302124,0.0454712,0.0332642,0.038147,0.0134277,0.00854492,-0.000305176,-0.0186157,0.0222778,0.0192261
9,2,-0.0268555,0.0250244,0.0415039,0.0311279,0.0256348,0.0439453,0.0161743,0.0140381,0.0219727,0.0152588,-0.0119019,0.0241089,0.0350952
9,3,0.0140381,-0.0106812,0.0378418,0.0320435,0.0457764,0.0363159,0.027771,0.0238037,0.0167847,0.00579834,-0.0189209,0.0332642,0.0259399
9,4,0.0146484,0.020752,0.0262451,0.0430298,0.0299072,0.0354004,0.0256348,0.00579834,0.0106812,-3.03253,-0.0268555,0.0164795,0.0115967
10,0,0.0189209,0.0610352,0.0317383,0.0366211,0.0280762,0.0415039,0.0195312,0.0149536,0.0186157,-2.95105,-0.0195312,0.00640869,0.03479
10,1,0.0247192,0.0372314,0.0650024,0.0308228,0.0350952,0.0524902,0.0265503,0.0509644,0.0109863,-2.87842,-0.0262451,0.0344849,0.032959
10,2,0.020752,0.0247192,0.0402832,0.0125122,0.03479,0.0341797,0.0183105,0.0170898,0.0231934,-2.78107,-0.0268555,0.0241089,-0.00854492
10,3,0.0134277,0.0189209,-0.0323486,0.0250244,0.027771,0.0286865,0.0250244,0.0253296,0.0100708,-2.72369,-0.0164795,0.0167847,0.0183105
10,4,0.00549316,0.0186157,0.0247192,0.0274658,0.0372314,-0.00579834,0.0204468,0.0350952,0.00671387,-2.6413,-0.0234985,-0.0109863,0.0149536
11,0,-0.000915527,0.072937,0.0195312,0.0286865,0.0469971,0.0280762,0.0561523,0.0210571,0.0231934,-2.54608,-0.0192261,0.015564,0.0335693
11,1,0.0167847,0.0262451,0.0354004,0.0701904,0.0137329,0.0271606,0.03479,0.0283813,0.0195312,2.5119,-0.027771,0.012207,0.00549316
11,2,0.0204468,0.0210571,0.00762939,0.0292969,0.0302124,0.0457764,0.0234985,0.0152588,-0.0164795,3.29803,-0.0234985,-0.0234985,0.0280762
11,3,0.00457764,0.0299072,0.0216675,0.039978,0.0378418,0.0262451,0.0198364,0.0323486,0.0152588,1.20575,-0.0198364,0.0213623,0.0137329
11,4,0.00457764,0.0231934,0.03479,0.0357056,0.0338745,0.0311279,0.0283813,0.0256348,0.0119019,3.28949,0.0112915,0.0115967,0.0286865
12,0,0.00579834,0.0274658,0.0280762,0.0421143,0.00427246,0.0280762,0.0262451,-0.00640869,0.0140381,3.29651,-0.0378418,0.0231934,0.0305176
12,1,0.00518799,0.0183105,0.0305176,0.0317383,0.0305176,0.0302124,0.0231934,-0.00213623,0.0158691,3.28308,-0.00976562,0.0262451,0.0238037
12,2,0.0158691,0.0204468,0.0360107,0.0271606,0.0170898,0.0460815,0.0283813,0.0201416,0.0140381,3.31024,-0.0131226,0.0131226,0.0274658
12,3,-0.0387573,0.012207,0.0268555,0.0363159,0.0112915,0.0283813,0.0262451,0.0384521,0.0146484,1.8634,0.0131226,0.017395,0.0177002
12,4,0.00671387,0.0250244,0.0308228,0.0231934,0.0198364,0.0845337,0.0280762,0.0335693,0.045166,3.13599,-0.0250244,0.010376,0.0222778
13,0,0.00823975,0.0134277,0.038147,0.0326538,0.0286865,0.0241089,0.0363159,0.0106812,0.0231934,-0.739441,-0.00549316,0.0167847,-0.038147
13,1,0.0134277,0.0128174,0.00976562,0.020752,0.015564,0.00946045,0.0158691,0.0167847,-0.0152588,2.42462,-0.0100708,0.0512695,0.0320435
13,2,0.0344849,0.0259399,0.0244141,0.0543213,0.0244141,0.0286865,0.0180054,0.0198364,0.0152588,-2.99927,0.0183105,0.0131226,0.0387573
13,3,0.00518799,0.0378418,0.00823975,-0.012207,0.038147,0.0357056,0.0402832,0.0283813,0.0119019,3.14423,-0.0100708,0.0198364,0.0286865
13,4,0.00335693,0.0280762,0.0204468,0.0296021,0.0375366,0.0302124,0.0244141,0.0198364,0.00793457,3.1134,-0.0213623,0.00396729,0.0201416
14,0,0.0170898,0.0219727,0.055542,0.0549316,0.0283813,-0.0280762,0.0231934,0.0241089,0.0628662,3.00171,-0.0134277,0.00152588,0.0241089
14,1,0.00549316,0.0305176,0.0274658,0.0354004,0.0256348,0.0387573,0.0296021,0.0247192,0.00640869,2.89154,-0.0125122,0.00274658,0.0201416
14,2,0.0274658,0.0411987,0.0357056,0.0189209,0.0408936,0.0997925,0.0384521,-0.00152588,-0.000915527,2.78931,0.000610352,0.0204468,0.0167847
14,3,0.0167847,0.0250244,0.0653076,0.0341797,0.027771,0.0363159,0.0167847,0.0146484,0.0234985,2.7066,-0.0201416,0.0189209,-0.0271606
14,4,0.00946045,0.0140381,0.0454712,0.0244141,0.0271606,-0.0180054,0.0408936,0.0256348,0.0418091,2.60071,-0.0170898,0.0357056,-0.000610352
15,0,0.0149536,0.00793457,0.0210571,0.0271606,0.00793457,0.0274658,0.0241089,0.0253296,0.0216675,2.50214,-0.0186157,0.0198364,0.017395
15,1,0.0210571,0.0274658,0.0238037,0.0186157,0.0183105,0.039978,0.0369263,0.0323486,0.0180054,2.4295,-0.0241089,0.0161743,0.022583
15,2,0.00610352,0.0152588,0.0384521,-0.00579834,0.0204468,0.0375366,0.0289917,0.00579834,-0.00213623,2.34192,-0.0198364,0.0253296,0.0149536
15,3,-0.000915527,0.00671387,0.032959,0.0308228,0.0463867,0.0210571,0.0259399,0.00244141,0.027771,2.2641,0.0012207,0.0317383,0.0271606
15,4,0.0201416,0.0305176,0.0128174,0.0424194,0.0402832,0.027771,0.00518799,0.0289917,0.0180054,2.18536,-0.00274658,0.0195312,0.0344849
16,0,-0.0527954,0.0213623,0.0100708,-0.0302124,0.0289917,0.0289917,0.0241089,0.0241089,0.00610352,2.11639,-0.0112915,0.0210571,0.0259399
16,1,0.0213623,0.0430298,0.0274658,0.0186157,0.0283813,0.0317383,0.0308228,0.0454712,0.00976562,2.0575,-0.0231934,-0.00549316,0.010376
16,2,0.000305176,0.0234985,0.0201416,0.0405884,0.0244141,0.0335693,0.0213623,0.0308228,0.0213623,1.97937,-0.0396729,0.00274658,0.0198364
16,3,0.0198364,0.00396729,0.0228882,0.0305176,0.039978,0.0482178,0.0299072,0.0274658,0.0317383,1.91101,-0.0213623,0.0180054,0.0125122
16,4,0.00640869,0.0210571,0.0137329,0.0360107,0.012207,0.0289917,-0.0146484,0.0241089,0.0167847,1.84967,-0.0167847,-0.00823975,0.062561
17,0,0.0167847,0.0134277,0.0234985,0.0259399,0.0344849,0.0415039,0.0198364,0.0344849,0.010376,1.7868,-0.0143433,0.0201416,0.0177002
17,1,0.0149536,0.00854492,0.0515747,0.0259399,0.0332642,0.0436401,0.0219727,0.0354004,0.0296021,1.73645,-0.0161743,0.0112915,0.010376
17,2,0.0146484,0.0442505,0.0402832,0.0274658,0.038147,0.0415039,0.0354004,0.00976562,0.0296021,1.65466,-0.0265503,0.0244141,0.0137329
17,3,0.00213623,0.00793457,0.0146484,0.0234985,0.032959,0.0326538,0.0524902,0.0250244,0.0274658,1.46606,-0.0152588,0.0280762,0.0424194
17,4,0.00640869,0.00793457,0.0112915,-0.0128174,0.0384521,0.0262451,0.0616455,0.0170898,0.0253296,1.20392,-0.0195312,0.0119019,0.00579834
18,0,0.0140381,0.015564,0.0265503,0.0183105,0.0250244,0.0231934,0.0326538,0.0668335,0.0137329,0.94696,-0.0396729,0.00946045,0.010376
18,1,0.0106812,-0.00244141,0.0350952,0.0216675,0.0363159,0.0296021,0.0204468,0.022583,0.0265503,0.743713,-0.0167847,0.00579834,0.0164795
18,2,-0.0454712,0.00213623,-0.00549316,0.0671387,0.027771,0.0140381,0.0439453,0.012207,0.0378418,0.543213,0.0128174,0.0256348,0.055542
18,3,0.0134277,0.0192261,0.0152588,0.0180054,0.0247192,0.0112915,0.0344849,0.0164795,0.00610352,0.143738,-0.0149536,0.0442505,0.010376
18,4,0.00823975,0.0152588,0.0131226,0.0332642,0.0314331,0.0180054,0.0561523,0.027771,0.0140381,0.0161743,-0.0109863,0.0360107,0.0292969
19,0,0.00823975,0.0222778,0.000610352,0.0241089,0.0256348,0.0668335,0.0332642,0.020752,0.0146484,-0.378113,-0.0198364,0.0216675,0.0289917
19,1,0.0167847,0.0140381,0.000610352,0.0125122,0.0424194,0.0421143,0.0253296,0.0292969,0.0228882,-0.152283,-0.0186157,0.0289917,0.0180054
19,2,0.0192261,-0.00701904,0.012207,0.0366211,0.00793457,0.03479,0.0204468,0.027771,0.0088501,-0.2005,0.0012207,0.0177002,0.0204468
19,3,0.00823975,-0.0112915,0.010376,0.0180054,0.0213623,0.00823975,0.0286865,0.0302124,0.0012207,-0.263977,-0.0299072,0.0308228,0.00915527
19,4,0.00427246,0.00549316,0.0088501,0.0216675,0.0976562,0.0305176,0.0338745,0.0366211,0.0250244,-0.372925,-0.0222778,0.0115967,0.0161743
20,0,0.0244141,0.0112915,-0.0125122,0.0201416,0.0271606,0.09552,0.0314331,0.0363159,0.0323486,-0.426636,-0.0305176,-0.0326538,0.0308228
20,1,0.00762939,0.00244141,0.010376,0.0204468,0.0344849,0.0354004,0.0994873,0.0344849,0.039978,-0.56488,-0.0158691,-0.00274658,0.0186157
20,2,0.0469971,0.000610352,0.00976562,0.017395,0.0354004,0.0357056,0.0244141,0.0527954,0.0360107,-0.732727,-0.0302124,0.0198364,0.0250244
20,3,0.0375366,0.0125122,0.00457764,-0.0280762,0.0259399,0.03479,0.0216675,0.0262451,0.0332642,-1.02966,-0.0189209,0.0012207,0.0216675
20,4,-0.0146484,-0.0177002,0.0177002,0.062561,0.0128174,0.0289917,0.0714111,0.0338745,-0.000915527,-0.836487,0.0198364,0.015564,-0.00213623
21,0,-0.00183105,0.00976562,0.0183105,-0.00579834,0.0219727,0.0344849,0.0262451,0.0231934,0.0134277,-0.693359,-0.0137329,0.0213623,0.0198364
21,1,0.0198364,0.00396729,0.0222778,0.0115967,0.0201416,0.027771,0.0234985,0.0292969,0.0814819,-0.729065,-0.0259399,0.0158691,0.0283813
21,2,0.0186157,0.0125122,0.00610352,0.012207,0.00488281,0.0286865,0.0473022,0.0274658,0.0189209,-0.910339,-0.0219727,-0.00640869,0.020752
21,3,0.0210571,-0.00549316,0.0152588,0.0112915,0.0360107,0.0326538,0.0378418,0.0405884,0.0143433,-0.890808,-0.0119019,0.00701904,0.0100708
21,4,0.0109863,0.00610352,0.0177002,0.0256348,0.0305176,0.055542,0.0244141,0.0375366,0.0274658,-0.823059,-0.0152588,0.00915527,0.0128174
22,0,0.0326538,0.00976562,0.00701904,0.017395,0.0485229,0.0262451,0.0906372,0.0476074,0.0228882,-0.912476,-0.0250244,0.010376,0.0180054
22,1,0.0292969,-0.00610352,0.00549316,0.0256348,0.0192261,0.0231934,0.0335693,0.0170898,0.0396729,-0.911865,-0.0579834,0.00244141,0.0189209
22,2,0.0164795,0.0515747,0.0189209,0.0201416,0.0531006,0.0619507,0.032959,0.00671387,0.0292969,-0.932007,-0.0256348,0.0238037,0.022583
22,3,0.0164795,-0.00762939,0.0106812,0.0195312,-0.00610352,0.0335693,0.0161743,0.0372314,0.0296021,-0.950012,-0.0177002,0.0100708,0.0164795
22,4,0.015564,0.0363159,0.0222778,0.0238037,0.0305176,0.0268555,0.0549316,0.0253296,0.022583,-0.970154,-0.0262451,0.017395,0.0146484
23,0,0.0308228,0.0161743,0.0234985,0.0210571,0.0158691,0.0704956,0.0140381,0.0314331,0.0314331,-0.985413,-0.0286865,0.0177002,0.0250244
23,1,0.0274658,-0.0323486,0.0180054,0.0234985,0.067749,0.015564,0.0375366,0.0247192,0.0228882,-0.992126,0.000610352,0.0192261,0.015564
23,2,0.0323486,0.0164795,0.0012207,0.0524902,0.0308228,0.0241089,0.032959,0.0384521,0.0378418,-0.977783,-0.0653076,0.0170898,-0.000610352
23,3,0.0759888,0.00335693,0.012207,0.0112915,0.00915527,0.0393677,0.0271606,0.0344849,0.015564,-1.00647,-0.0265503,0.0228882,0.0115967
23,4,0.0100708,0.0268555,0.000610352,0.0534058,0.0311279,0.0198364,0.0296021,0.0335693,0.0405884,-0.99884,-0.0164795,-0.000305176,0.0134277
24,0,0.0213623,0.0161743,0.00183105,0.0216675,0.0183105,0.0350952,0.00671387,0.0506592,0.0189209,-1.00128,-0.045166,0.010376,0.0454712
24,1,0.0231934,0.0100708,0.0164795,0.0201416,0.0473022,0.0393677,0.0305176,0.0650024,0.03479,-0.989685,-0.0210571,0.0131226,0.012207
24,2,0.0231934,0.00610352,0.0112915,0.0216675,0.0131226,0.0283813,0.0244141,0.0253296,0.0247192,-0.986023,-0.0201416,0.0186157,-0.0219727
24,3,0.0119019,0.0112915,0.0143433,0.0137329,0.0283813,0.0393677,0.0335693,-0.0137329,0.0442505,-0.992432,-0.0250244,0.0177002,0.0234985
24,4,0.0335693,0.0146484,0.012207,-0.0137329,0.0289917,0.032959,-0.00915527,0.0161743,0.0509644,-0.962219,-0.0189209,0.00640869,0.0112915
25,0,0.017395,0.012207,0.0186157,0.0167847,0.022583,0.0112915,0.0363159,-0.00366211,0.0274658,-0.971985,-0.0167847,0.022583,0.0201416
25,1,0.0204468,0.00488281,0.067749,0.0292969,0.0201416,0.0192261,0.0332642,0.0289917,-0.0354004,-0.960999,-0.0253296,0.0177002,0.00549316
25,2,0.0219727,0.00457764,0.00915527,0.00640869,0.0244141,0.0109863,0.0323486,0.0250244,0.0323486,-0.958557,-0.0262451,0.0439453,0.0158691
25,3,0.0476074,0.0146484,0.0219727,0.0119019,0.0326538,0.0747681,0.0460815,0.0482178,0.00823975,-0.942078,-0.0305176,0.0271606,0.0119019
25,4,0.0115967,-0.0125122,0.0167847,0.00152588,0.0192261,0.0280762,0.0637817,0.0292969,0.0317383,-0.940247,-0.0323486,0.0183105,0.022583
26,0,0.038147,-0.00732422,-0.0180054,0.0149536,0.0213623,0.0186157,0.0338745,0.038147,0.0650024,-0.904541,-0.0338745,-0.0408936,0.00671387
26,1,0.0421143,0.00579834,0.0137329,0.0253296,0.0292969,0.0186157,0.0430298,0.0189209,0.0317383,-0.898743,-0.0369263,0.0167847,0.0186157
26,2,0.0289917,0.0115967,0.00274658,0.0128174,0.0231934,0.015564,0.0482178,0.0305176,0.0256348,-0.882263,-0.0509644,0.0177002,0.00946045
26,3,0.0338745,0.0152588,0.0149536,0.0180054,0.0250244,0.0128174,0.0354004,0.017395,0.0479126,-0.881348,-0.0357056,0.0268555,0.0149536
26,4,0.00946045,0.00488281,0.0515747,0.0146484,0.00579834,-0.0115967,0.0323486,0.00701904,0.0341797,-0.853577,-0.0262451,0.0228882,0.017395
27,0,0.0167847,-0.00366211,0.0302124,0.0317383,0.0421143,0.022583,0.0338745,0.0271606,0.0314331,-0.823059,-0.0213623,0.0134277,0.010376
27,1,0.0283813,0.0283813,0.0137329,0.0115967,0.0231934,-0.00640869,0.0292969,0.00793457,0.0463867,-0.836182,-0.0198364,0.0305176,0.0146484
27,2,0.0164795,0.012207,0.00946045,0.010376,0.0302124,0.0231934,0.0198364,0.0405884,0.0164795,-0.814514,-0.00396729,0.0183105,0.0259399
27,3,0.0350952,0.00701904,0.0134277,0.0231934,0.0128174,0.0320435,0.0454712,0.0192261,0.0323486,-0.761414,-0.0228882,0.0192261,0.0140381
27,4,-0.0088501,0.0396729,0.0244141,0.0177002,0.0201416,0.015564,0.0357056,0.0302124,0.0363159,-0.77179,-0.0231934,-0.00213623,0.0128174
28,0,0.0384521,0.0106812,0.0106812,-0.00518799,0.0213623,0.0238037,0.0366211,0.0314331,0.0396729,-0.757751,-0.027771,0.0177002,0.0109863
28,1,-0.0335693,-0.000915527,-0.00579834,0.0289917,0.0198364,0.0387573,0.0183105,0.0393677,0.0344849,-0.752258,-0.0570679,0.0137329,0.00976562
28,2,0.0268555,0.0344849,0.0253296,0.0128174,0.0332642,0.0338745,0.0250244,0.0558472,0.0262451,-0.730896,-0.0286865,0.0292969,0.0167847
28,3,0.0241089,0.00762939,-0.039978,-0.00579834,0.0195312,0.0213623,0.0112915,0.0244141,0.0213623,-0.714722,-0.0274658,0.0198364,0.0192261
28,4,0.0259399,0.00946045,0.0140381,-0.000915527,0.0253296,0.0210571,0.0341797,0.0836182,0.0247192,-0.701599,-0.0253296,0.0143433,0.0183105
29,0,0.0213623,0.0292969,0.0280762,0.0177002,0.0088501,0.00366211,0.027771,0.0338745,0.0305176,-0.606995,-0.0286865,0.0115967,0.0567627
29,1,0.00701904,0.0088501,-0.0149536,0.0332642,0.0219727,-0.0354004,0.0527954,0.0311279,0.0314331,-0.644226,-0.0299072,0.0482178,0.015564
29,2,0.0305176,0.0192261,0.0247192,0.0134277,0.0259399,0.0228882,0.0234985,0.0213623,-0.00335693,-0.635681,-0.0219727,0.0668335,0.022583
29,3,0.0177002,0.0204468,0.0216675,0.0186157,0.00823975,0.0170898,0.022583,0.0402832,0.0393677,-0.618286,-0.0323486,0.0198364,0.0140381
29,4,0.039978,0.0158691,0.015564,0.0186157,0.0238037,0.038147,0.0250244,0.0378418,0.0604248,-0.603333,-0.0350952,0.0747681,0.0213623
30,0,0.0238037,0.0204468,0.0128174,0.0137329,0.0152588,0.00640869,0.0460815,0.0219727,0.0460815,-0.597839,-0.027771,0.0302124,0.0161743
30,1,0.0311279,0.020752,0.0299072,-0.000915527,-0.0119019,0.0189209,0.0274658,0.0396729,0.0219727,-0.558167,-0.0183105,0.00854492,0.0231934
30,2,0.039978,0.0195312,0.0280762,0.0457764,0.0152588,0.0228882,0.0338745,0.0296021,0.0259399,-0.584106,-0.022583,0.027771,0.0280762
30,3,0.0286865,0.0201416,0.0152588,0.0143433,0.0180054,0.0195312,0.0314331,0.0314331,0.0125122,-0.542603,-0.0180054,0.0158691,0.0292969
30,4,0.0128174,0.0119019,0.0125122,-0.0241089,-0.00274658,0.0149536,0.0662231,0.0494385,0.0289917,-0.516357,0.00427246,0.0146484,0.0158691
31,0,0.0396729,0.0268555,0.0183105,0.0234985,0.0201416,-0.00213623,0.0128174,0.0219727,0.015564,-0.508728,-0.0335693,0.020752,0.0234985
31,1,0.0338745,-0.0244141,0.0161743,0.0210571,0.0552368,0.015564,0.0152588,0.0299072,0.0177002,-0.479431,-0.0167847,0.0186157,0.0238037
31,2,0.0265503,0.0302124,0.0363159,0.0140381,0.0115967,0.0720215,0.0198364,0.00366211,-0.00335693,-0.46051,-0.0186157,0.0234985,0.0180054
31,3,-0.012207,0.0241089,0.03479,0.010376,0.0161743,0.0259399,0.0134277,0.010376,0.0119019,-0.466003,-0.0460815,0.0274658,0.0158691
31,4,0.0210571,0.0170898,-0.0314331,-0.0012207,0.00640869,-0.0286865,0.0228882,0.0268555,0.0650024,-0.450439,-0.0372314,0.0469971,0.0234985
32,0,0.0390625,0.0180054,0.0308228,0.00915527,0.00976562,0.012207,-0.00732422,0.0299072,0.0241089,-0.496521,-0.0430298,0.0259399,0.0289917
32,1,0.0378418,0.0311279,0.0253296,-0.00366211,0.0140381,0.0109863,0.0152588,0.0418091,0.0204468,-0.437622,-0.0210571,0.0234985,0.0228882
32,2,0.0228882,0.0372314,0.015564,0.0762939,0.0219727,-0.00915527,0.0592041,0.0265503,0.00518799,-0.389709,-0.0411987,0.0164795,0.017395
32,3,-0.00305176,0.020752,0.0241089,-0.0106812,0.0244141,0.00701904,-0.0177002,0.0506592,0.0292969,-0.450745,-0.067749,0.0177002,-0.0326538
32,4,0.010376,0.022583,0.00762939,0.020752,0.0253296,0.00701904,0.0537109,0.027771,-0.0183105,-0.408936,-0.0244141,0.0302124,0.0100708
33,0,0.0305176,0.0335693,0.0231934,0.0228882,0.0088501,0.00488281,0.0201416,0.0280762,0.0222778,-0.395203,-0.0408936,0.015564,0.00732422
33,1,0.0283813,0.0332642,0.0311279,0.00579834,0.0250244,0.022583,0.0231934,0.00762939,0.0161743,-0.379028,-0.0378418,0.0152588,0.0286865
33,2,0.0405884,0.0170898,0.0219727,0.0222778,0.00427246,0.0195312,-0.00274658,0.00762939,0.0289917,-0.363159,-0.0247192,0.0271606,0.0283813
33,3,0.0247192,0.0616455,0.0299072,0.0247192,0.0177002,0.0219727,0.0186157,0.00976562,0.0198364,-0.345154,-0.0238037,0.0201416,0.0479126
33,4,0.0335693,-0.0152588,0.022583,0.0115967,0.0192261,0.0201416,0.0231934,0.0152588,0.0167847,-0.333862,-0.039978,0.0469971,0.0198364
34,0,0.0448608,0.0299072,0.020752,0.0262451,0.00762939,0.0161743,0.0146484,0.043335,0.0259399,-0.320435,-0.0335693,-0.00701904,0.0100708
34,1,0.0228882,0.00946045,-0.0390625,0.0201416,0.00335693,-0.0189209,0.0250244,0.0192261,0.0564575,-0.292053,-0.0296021,0.0512695,0.03479
34,2,0.0384521,0.0704956,0.0296021,0.0137329,0.0497437,0.0158691,0.0149536,0.00183105,0.0259399,-0.286865,-0.0518799,0.0201416,0.0219727
34,3,0.0354004,0.0219727,0.0289917,0.0250244,0.00610352,0.0222778,0.0268555,0.0302124,0.0302124,-0.310059,-0.0274658,0.0354004,0.00152588
34,4,-0.0222778,0.0265503,0.00488281,0.0332642,0.0201416,0.0296021,0.0152588,0.0128174,0.0518799,-0.273438,-0.0241089,0.0241089,0.0177002
35,0,0.0213623,0.0292969,0.0238037,0.00396729,0.0320435,0.0134277,0.0421143,0.0247192,0.0161743,-0.245056,-0.03479,0.0219727,0.0125122
35,1,0.0296021,0.00762939,0.015564,0.00946045,-0.0393677,0.0143433,0.00701904,0.0595093,0.0247192,-0.223083,-0.0350952,0.032959,0.0512695
35,2,0.0491333,0.022583,0.0149536,0.0158691,-0.00732422,0.0146484,0.0115967,0.0134277,0.0308228,-0.233765,-0.00976562,0.0378418,0.015564
35,3,0.0320435,0.0259399,0.0134277,0.0140381,0.0109863,0.017395,0.0286865,0.0152588,0.0436401,-0.232849,-0.0119019,0.0234985,0.0253296
35,4,0.0439453,0.0323486,0.0195312,0.017395,0.0149536,0.0198364,0.0430298,0.0241089,0.0274658,-0.268555,-0.0436401,0.0308228,0.0604248
36,0,0.0198364,0.00915527,-0.000915527,0.0161743,0.00701904,-0.00183105,0.0213623,0.0271606,0.0244141,-0.202637,-0.0360107,0.0411987,0.0265503
36,1,0.0115967,0.0320435,0.0256348,0.0195312,0.00366211,0.0195312,0.0137329,0.0274658,0.0250244,-0.229797,-0.0253296,0.022583,0.0775146
36,2,0.0244141,0.0183105,0.0183105,0.0164795,0.00457764,0.015564,-0.0463867,0.0164795,0.0268555,-0.177612,-0.0302124,0.0292969,0.0115967
36,3,0.0308228,0.0411987,0.00732422,0.0149536,0.0140381,0.0314331,0.017395,0.0131226,0.0326538,-0.192871,-0.0283813,0.022583,-0.0106812
36,4,0.0393677,0.0222778,0.020752,0.0231934,0.00549316,0.0222778,0.0238037,0.0323486,0.0186157,-0.159607,-0.0289917,0.0256348,0.043335
37,0,0.0311279,0.0280762,0.0253296,0.0180054,0.022583,0.0219727,0.0262451,0.022583,0.0222778,-0.152893,-0.0350952,0.0662231,0.0219727
37,1,0.0262451,0.0320435,0.015564,0.00976562,0.00915527,0.0253296,0.0183105,0.0793457,0.0210571,-0.149841,-0.0332642,0.00640869,0.0210571
37,2,0.0317383,0.0366211,0.0842285,0.0289917,0.0180054,0.0814819,0.00732422,0.0250244,0.0527954,-0.139771,-0.0186157,0.0363159,0.0204468
37,3,0.0350952,0.0262451,0.0149536,0.0283813,-0.000305176,0.0250244,0.0186157,0.0100708,0.0238037,-0.151367,-0.0305176,0.0259399,0.0579834
37,4,0.0280762,0.0650024,0.00793457,0.0256348,-0.0244141,0.0500488,0.0158691,-0.032959,0.020752,-0.124512,-0.0216675,-0.000305176,0.0186157
38,0,0.0384521,0.0115967,0.0299072,0.0234985,0.0146484,0.022583,0.0140381,0.0088501,0.0357056,-0.111694,-0.0280762,0.00610352,0.0140381
38,1,0.0469971,0.0817871,0.0183105,0.0177002,-0.043335,-0.0012207,0.0088501,0.0219727,0.0201416,-0.0970459,-0.0244141,0.0305176,0.00915527
38,2,0.0234985,0.0335693,0.0292969,0.0265503,0.0262451,0.0198364,0.0177002,0.0216675,0.00274658,-0.105591,-0.0231934,0.0244141,0.0228882
38,3,0.0274658,0.0341797,0.0292969,0.0292969,0.0183105,0.0201416,0.00854492,0.0158691,0.0247192,-0.0958252,-0.0387573,0.0283813,0.0244141
38,4,0.038147,0.0363159,-0.0158691,0.0283813,0.0302124,0.0210571,0.0268555,0.0253296,0.0167847,-0.108032,-0.0271606,0.0244141,0.0695801
39,0,0.03479,0.0140381,0.0219727,0.0912476,0.0241089,-0.00244141,-0.0360107,0.0238037,-0.00183105,-0.0906372,-0.0402832,0.0234985,0.0274658
39,1,0.0247192,0.0424194,0.0640869,0.0143433,0.0219727,-0.0213623,0.00610352,0.020752,0.0338745,-0.0894165,-0.0271606,0.0350952,0.022583
39,2,0.0238037,0.0424194,0.017395,0.0219727,0,0.0140381,0.0192261,0.00976562,0.0311279,-0.119324,-0.0360107,0.0296021,0.0228882
39,3,0.0357056,0.0363159,0.0332642,0.012207,0.0253296,0.0259399,0.00640869,0.00732422,0.022583,-0.0787354,0.00579834,0.0265503,0.0308228
39,4,0.0280762,0.03479,0.0164795,0.0109863,0.0250244,0.0152588,0.0183105,0.0149536,0.0442505,-0.0643921,-0.0280762,0.000305176,0.0320435
40,0,0.0216675,0.0323486,0.0302124,0.00427246,0.0219727,0.0180054,0.00457764,0.017395,0.022583,-0.0424194,-0.0289917,0.0262451,0.0265503
40,1,0.0338745,-0.000610352,0.0106812,0.0146484,0.0143433,0.0012207,0.0180054,0.0387573,0.0408936,-0.0628662,-0.0357056,0.0314331,0.0314331
40,2,0.03479,0.032959,-0.0439453,0.0265503,0.03479,0.0167847,0.00732422,0.0109863,0.0305176,-0.0650024,-0.0335693,0.0408936,0.0378418
40,3,0.0253296,0.0384521,0.0326538,0.00976562,0.0326538,0.0180054,0.0219727,0.020752,0.0186157,-0.0320435,-0.0335693,0.0332642,0.0311279
40,4,0.0308228,0.0302124,0.0793457,0.0115967,0.0219727,0.0183105,0.0259399,0.0164795,0.0292969,-0.0576782,-0.0338745,0.0195312,0.0439453
41,0,0.0317383,0.0323486,0.0283813,0.0265503,0.0344849,0.0109863,0.020752,0.0183105,0.0192261,-0.0415039,-0.0265503,0.0384521,0.0241089
41,1,0.0253296,0.050354,0.0146484,0.0280762,0.0292969,0.022583,0.0134277,0.0100708,0.0305176,-0.0372314,-0.0320435,0.0296021,0.0460815
41,2,0.0460815,0.0317383,0.017395,0.0167847,0.0183105,0.00640869,0.0137329,0.0234985,0.0424194,-0.0250244,-0.0268555,0.022583,0.0256348
41,3,0.0180054,0.0454712,0.0241089,0.0250244,0.0244141,0.0228882,0.0262451,0.0189209,0.0283813,-0.0289917,-0.027771,0.0820923,0.0302124
41,4,0.015564,0.0338745,0.0253296,0.0460815,0.00823975,0.0164795,0.00732422,0.00915527,0.0234985,-0.0296021,-0.0561523,0.0241089,0.0323486
42,0,0.0228882,0.0283813,0.0247192,0.022583,0.0234985,0.0143433,0.00671387,0.0256348,0.0219727,-0.00366211,0.0131226,0.0274658,0.06073
42,1,0.0189209,0.0436401,0.0332642,0.0350952,0.00579834,0.0131226,0.0012207,0.0149536,0.0195312,-0.0305176,-0.0286865,0.0488281,0.0415039
42,2,0.0296021,0.0241089,0.0259399,0.00915527,0.0128174,0.0280762,0.0137329,-0.00854492,0.0344849,-0.00793457,-0.0247192,0.039978,0.0289917
42,3,0.0158691,0.0112915,0.0250244,0.0167847,-0.0244141,0.0222778,0.0332642,0.0012207,0.0265503,0.00549316,-0.0299072,0.0363159,0.0286865
42,4,0.020752,0.0405884,0.0143433,-0.0189209,0.0238037,0.0192261,0.0457764,0.0262451,0.0479126,0.0128174,-0.0332642,0.00915527,0.0247192
43,0,0.0271606,0.0222778,-0.0311279,0.0152588,0.00549316,0.0088501,0.00976562,0.0350952,0.0292969,-0.0180054,-0.0189209,0.0302124,0.0183105
43,1,0.0164795,0.0100708,0.0222778,0.0317383,0.0253296,-0.00183105,-0.0234985,0.0213623,0.00549316,0.0558472,-0.027771,0.0350952,0.0460815
43,2,0.0204468,0.0283813,0.0311279,0.0228882,0.0274658,-0.00213623,0.0183105,0.0192261,0.0164795,0.00793457,-0.0247192,0.0311279,0.0491333
43,3,0.0878906,0.0418091,0.0170898,-0.0369263,0.0234985,0.00305176,0.0250244,0.012207,0.0183105,0.020752,-0.0216675,0.0241089,0.0256348
43,4,-0.00793457,0.043335,0.0286865,0.0228882,0.0378418,0.017395,0.027771,0.0192261,0.0274658,0.010376,-0.022583,0.0302124,0.0372314
44,0,0.0283813,0.0552368,0.0253296,0.0286865,0.0137329,0.00549316,0.0125122,0.0222778,0.0180054,0.0180054,-0.0326538,0.0283813,0.0271606
44,1,0.0363159,0.0418091,0.0296021,0.0177002,0.0259399,0.0271606,0.0180054,0.0271606,-0.00366211,0.0152588,-0.0354004,0.0784302,0.0268555
44,2,0.0463867,0.00854492,0.0256348,0.0271606,0.0186157,0.0247192,0.000915527,0.0137329,0.0170898,0.000305176,-0.0579834,0.0271606,0.0482178
44,3,0.0259399,0.0234985,0.0350952,0.0274658,0.0296021,-0.017395,0.0106812,0.00427246,0.0265503,0.0244141,-0.0289917,0.0210571,0.03479
44,4,0.0143433,0.0170898,0.0234985,0.0320435,0.0198364,0.0149536,0.0112915,0.0177002,0,0.0427246,-0.0195312,0.0320435,-0.012207
45,0,0.0149536,0.0317383,0.0335693,0.0265503,0.0170898,0.0247192,0.00427246,0.0265503,0.0180054,0.0109863,-0.0289917,-0.0115967,0.038147
45,1,0.0271606,0.072937,0.0289917,0.032959,0.0448608,0.0326538,0.0192261,-0.0320435,0.0262451,0.0195312,-0.0311279,0.0268555,0.0180054
45,2,0.0204468,0.0323486,0.0195312,0.0167847,-0.00274658,0.000915527,0.0109863,0.00274658,0.0262451,0.00335693,-0.0262451,0.0274658,0.0262451
45,3,0.0454712,0.017395,0.0253296,0.0137329,0.0360107,0.0088501,0.00854492,0.00274658,0.0125122,-0.0692749,-0.0292969,0.0314331,0.0292969
45,4,0.0265503,-0.0280762,0.0265503,0.0222778,-0.0112915,0.0167847,0.0231934,0.0192261,0.00579834,-1.51886,-0.0238037,0.0311279,0.0228882
46,0,0.0228882,0.0216675,0.0143433,0.0231934,0.0112915,-0.0341797,0.0201416,0.00793457,0.0595093,-0.505676,-0.0354004,0.0967407,0.0308228
46,1,-0.0112915,0.038147,0.0289917,0.0622559,0.0192261,0.0177002,0.0363159,0.0177002,0.0183105,-0.377808,-0.0210571,0.020752,0.0323486
46,2,0.0219727,0.0320435,0.0234985,0.0253296,-0.00823975,0.0158691,0.0216675,0.0192261,0.0115967,-1.315,-0.043335,0.0195312,0.00854492
46,3,0.0341797,0.0204468,0.0314331,0.0317383,0.0335693,0.0253296,0.0244141,0.010376,0.022583,-2.72766,0.0238037,-0.00244141,0.045166
46,4,0.0604248,0.027771,0.0283813,0.0674438,0.0262451,0.03479,0.0219727,0.0158691,0.0274658,-1.31073,-0.0543213,0.0292969,0.0296021
47,0,0.0253296,0.0311279,0.0274658,0.0436401,0.0418091,0.0247192,0.0323486,0.00213623,0.0164795,0.814209,-0.0299072,0.0296021,0.0994873
47,1,0.0222778,0.0180054,0.0228882,0.0323486,0.0262451,0.0128174,0.0100708,-0.00274658,0.0387573,-2.62726,-0.022583,0.0241089,0.0387573
47,2,0.0421143,0.0256348,0.027771,0.0405884,0.0164795,0.012207,0.0219727,0.0134277,0.0241089,0.241699,-0.0201416,0.022583,0.0915527
47,3,0.0256348,-0.00610352,0.0296021,0.0308228,0.0909424,0.0112915,0.0161743,-0.0177002,0.0140381,-0.140381,-0.0250244,0.0250244,0.0134277
47,4,0.0354004,0.0357056,0.0286865,0.032959,0.0213623,0.0292969,0.0158691,0.015564,0.0228882,0.549622,-0.0256348,0.000610352,0.0494385
48,0,0.00854492,0.0424194,0.0350952,0.00701904,0.0228882,0.0286865,0.0213623,0.010376,0.0115967,1.22162,-0.0317383,0.027771,0.0378418
48,1,0.0265503,-0.0125122,0.0253296,0.0274658,0.0628662,0.0189209,0.0119019,0.00732422,0.00244141,1.38336,-0.0204468,0.0201416,0.0463867
48,2,0.027771,0.0320435,0.0256348,0.0314331,0.0247192,0.0195312,0.0283813,0.0167847,0.0201416,1.20239,-0.0222778,0.0149536,0.0259399
48,3,0.0283813,0.0238037,0.0201416,0.0308228,0.0195312,0.0119019,0.0119019,0.00366211,0.0161743,1.17889,-0.0146484,0.0198364,-0.0219727
48,4,0.0289917,0.022583,0.010376,0.0289917,0.0250244,0.0387573,0.00396729,0.015564,0.0860596,1.09924,-0.0177002,-0.027771,0.0476074
49,0,0.0265503,0.0308228,0.0430298,0.0274658,0.0314331,0.0204468,0.0146484,0.0088501,0.0463867,1.01776,-0.0161743,0.0460815,-0.0253296
49,1,0.0143433,0.0592041,0.00793457,0.0241089,-0.0161743,0.0210571,0.0289917,0.0256348,0.0149536,0.919189,-0.0262451,0.0393677,0.0231934
49,2,0.0253296,0.0241089,0.0372314,0.0286865,0.0271606,0.0280762,0.0372314,0.020752,0.0167847,0.843811,-0.0262451,0.0253296,0.0323486
49,3,0.0357056,0.0265503,0.0247192,0.0274658,0.022583,0.0238037,0.0302124,-0.000610352,0.0183105,0.751343,0.010376,-0.00274658,0.0299072
49,4,0.0747681,0.0268555,0.0265503,0.0619507,0.0372314,0.0338745,0.0198364,0.00823975,0.012207,0.69397,-0.0219727,0.0299072,0.0372314
50,0,0.0259399,0.0238037,0.0289917,0.0299072,0.0268555,0.0283813,0.0244141,0.0390625,0.017395,0.610962,-0.0192261,0.0268555,0.0393677
50,1,0.0308228,0.0363159,0.0262451,0.0305176,0.0186157,0.0317383,0.0283813,0.0253296,0.0231934,0.552673,-0.0268555,0.0195312,0.0256348
50,2,0.0256348,0.0292969,0.0268555,0.0161743,0.0259399,0.0311279,0.0305176,0.0125122,0.0164795,0.570068,-0.0177002,0.015564,0.065918
50,3,0.0137329,0.0115967,0.0335693,0.0308228,0.0750732,0.0363159,0.0213623,0.0088501,-0.000610352,0.447693,-0.00244141,0.0265503,0.0335693
50,4,0.0942993,0.0241089,0.0292969,0.0701904,0.0231934,0.0308228,0.0289917,0.0430298,0.0177002,0.40741,-0.0204468,0.0262451,0.0366211
51,0,0.00854492,0.0222778,0.0393677,0.0137329,0.020752,0.0204468,0.0289917,0.010376,0.00915527,0.354309,-0.0244141,0.027771,0.00915527
51,1,0.0283813,0.0247192,-0.0323486,0.0177002,0.0210571,0.0335693,0.0222778,0.0167847,0.0332642,0.319519,-0.0332642,0.0161743,0.0198364
51,2,0.0228882,0.015564,0.0241089,0.022583,0.0186157,0.0531006,0.0201416,0.0216675,-0.00427246,0.291138,-0.0250244,0.0390625,0.017395
51,3,0.0317383,0.0262451,0.0460815,0.0292969,0.0271606,0.0238037,0.0152588,0.0192261,0.0134277,0.249939,-0.0186157,0.0259399,0.0405884
51,4,0.0311279,0.0350952,0.0219727,0.0271606,0.0143433,0.0314331,0.0134277,0.0262451,0.0241089,0.211487,0.0100708,0.0140381,0.0283813
52,0,0.00549316,0.0262451,0.105591,0.0311279,0.0198364,0.039978,0.0350952,-0.00274658,-0.0561523,0.185852,-0.0296021,0.0259399,0.022583
52,1,0.0375366,0.0292969,0.010376,-0.00274658,0.0424194,0.0213623,-0.0192261,0.00549316,0.012207,0.164185,-0.0210571,0.0317383,0.0354004
52,2,0.0396729,0.0506592,0.0411987,0.0271606,0.0219727,0.0213623,0.0259399,0.00976562,0.0109863,0.144958,-0.0750732,0.0186157,0.0256348
52,3,0.032959,0.0186157,0.0366211,0.0210571,0.0314331,0.0268555,0.0274658,0.00183105,0.0131226,0.128784,-0.0360107,0.0283813,0.0241089
52,4,0.0228882,0.0259399,-0.0186157,0.0213623,0.0238037,0.0509644,0.0372314,0.015564,0.0115967,0.107117,-0.0164795,0.022583,0.03479
53,0,0.0338745,0.0161743,0.0201416,0.027771,0.0134277,0.0274658,0.0143433,0.0445557,0.0158691,0.0881958,-0.0286865,0.0457764,0.0506592
53,1,0.0366211,0.0186157,0.0405884,0.0198364,0.0244141,0.0314331,0.0204468,0.00549316,0.00823975,0.0311279,-0.0119019,0.0180054,0.0466919
53,2,0.0411987,0.0262451,0.0332642,0.0247192,0.03479,0.0140381,0.0112915,0.0201416,0.000610352,0.00701904,-0.0131226,0.0332642,0.00976562
53,3,0.0177002,0.0311279,0.0250244,0.0378418,0.0448608,0.0418091,0.0552368,0.00518799,0.0280762,-0.162659,-0.00427246,0.0280762,0.0137329
53,4,-0.0149536,0.0192261,0.0265503,0.0158691,0.0360107,0.0357056,0.010376,0.020752,0.0183105,-0.0585938,-0.0271606,0.0247192,0.010376
54,0,-0.010376,0.0146484,0.0341797,-0.00915527,0.0350952,0.0375366,0.0219727,0.0204468,0.0164795,0.0549316,-0.0189209,0.0201416,0.0259399
54,1,0.00457764,0.0189209,0.032959,0.0222778,0.0296021,0.0442505,0.0341797,0.0149536,0.0195312,0.0500488,-0.0286865,0.015564,0.0445557
54,2,0.0189209,0.0473022,0.0427246,0.0250244,0.0488281,0.0439453,0.0317383,0.0228882,0.0131226,-0.0463867,-0.0302124,0.0106812,0.0128174
54,3,0.0283813,0.0378418,0.0296021,0.0231934,0.0244141,0.0350952,0.0241089,0.0259399,0.0167847,-0.0631714,-0.0161743,-0.00396729,0.0430298
54,4,0.0146484,0.0326538,0.0332642,0.03479,0.0558472,0.0335693,0.0268555,0.0183105,0.0204468,-0.0131226,-0.057373,0.0271606,0.0305176
55,0,0.0439453,0.0350952,0.0280762,0.0354004,0.020752,0.0253296,0.0756836,0.0195312,0.0186157,0.0860596,-0.0213623,0.0192261,0.0650024
55,1,0.0213623,0.00732422,-0.0326538,0.0308228,0.0527954,0.00823975,0.0256348,0.0177002,0.00457764,0.0387573,-0.0204468,-0.0183105,0.032959
55,2,0.0372314,0.0109863,0.0247192,0.0497437,0.0289917,0.0128174,0.0253296,0.0311279,0.0689697,-0.0234985,-0.0244141,0.0619507,0.0167847
55,3,0.0259399,0.0262451,0.0335693,0.0204468,0.0262451,0.0317383,0.032959,0.0247192,0.0634766,-0.0268555,-0.0238037,0.00671387,0.0189209
55,4,0.0299072,0.00518799,0.020752,0.0219727,0.0177002,0.101318,0.0320435,0.0323486,0.0460815,-0.00305176,-0.015564,0.0344849,0.017395
56,0,0.0271606,0.0219727,0.0268555,0.0378418,0.0421143,0.0268555,0.0186157,0.0299072,0.0177002,-0.101013,-0.0308228,0.00518799,0.0497437
56,1,0.0131226,0.0177002,0.0344849,0.0299072,0.0314331,0.0317383,0.0393677,0.0177002,0.00457764,-0.0906372,-0.027771,0.00610352,0.0247192
56,2,0.0308228,0.0289917,0.0341797,0.0332642,0.0375366,0.0430298,0.057373,0.00579834,0.010376,-0.0296021,-0.0140381,0.0238037,0.0292969
56,3,0.0219727,0.03479,0.0250244,0.0213623,0.0393677,0.0341797,0.0241089,0.0149536,0.0198364,0.0378418,0.0146484,0.00976562,0.0430298
56,4,0.00335693,0.0302124,0.0292969,-0.020752,0.0268555,0.0149536,0.0302124,0.0253296,0.0164795,-0.19104,-0.0473022,0.0161743,0.0250244
57,0,0.00549316,0.0332642,0.0396729,0.0247192,0.0109863,0.0494385,0.0250244,0.0149536,0.0177002,-0.108032,-0.0131226,0.0289917,0.0253296
57,1,0.0146484,0.0259399,0.0140381,0.012207,0.0247192,0.0299072,0.0305176,0.0317383,0.0186157,0.0204468,-0.0167847,0.015564,-0.00335693
57,2,0.0219727,0.0128174,0.0158691,0.032959,0.0265503,-0.00823975,0.0241089,0.017395,0.0250244,0.0769043,-0.0244141,0.0283813,0.0167847
57,3,0.000915527,0.0241089,0.017395,0.0430298,0.0314331,0.0384521,0.0250244,0.0283813,0.0201416,0.0341797,0.0125122,0.0161743,0.0183105
57,4,0.0256348,0.0192261,0.0527954,0.0134277,0.0302124,-0.0119019,0.0354004,0.0177002,-0.0393677,0.0613403,-0.022583,0.0201416,0.0274658
58,0,0.0177002,0.0473022,0.027771,0.083313,0.039978,0.0393677,0.0430298,0.00946045,0.00640869,0.0366211,0.00549316,0.00366211,0.0247192
58,1,0.00579834,0.0192261,0.0271606,0.0643921,0.0234985,0.0308228,0.027771,0.0360107,0.0143433,0.0463867,-0.00610352,0.0134277,0.0143433
58,2,0.0463867,0.0183105,0.0192261,-0.0183105,0.015564,0.0119019,0.00457764,0.0274658,0.0219727,0.0518799,-0.0180054,0.0119019,0.0140381
58,3,0.0296021,0.0183105,0.0149536,0.0265503,0.0244141,0.0137329,-0.0137329,0.03479,0.00244141,0.00732422,-0.0445557,0.0143433,-0.0128174
58,4,0.010376,0.0247192,0.045166,0.0238037,0.0317383,-0.0088501,0.0131226,0.0265503,0.012207,0.0161743,-0.0134277,0.0125122,0.0286865
59,0,0.0115967,0.0134277,0.0149536,0.0256348,0.0537109,0.0189209,0.0308228,0.0204468,0.0265503,0.0152588,-0.0375366,0.0259399,0.0335693
59,1,0.0256348,0.0234985,0.0323486,0.0241089,0.0393677,0.0323486,0.0357056,0.0204468,0.0204468,0.0152588,0.00183105,0.0134277,-0.0177002
59,2,0.039978,0.0146484,0.0152588,0.0341797,0.0244141,0.0201416,0.0363159,0.0219727,0.022583,0.00823975,-0.0128174,0.0161743,0.0308228
59,3,0.0234985,0.0274658,0.020752,0.0201416,0.0363159,0.0198364,0.0262451,0.0228882,0.0506592,0.0119019,-0.0204468,0.0112915,0.0259399
59,4,0.0192261,0.012207,0.0238037,0.0311279,0.0241089,0.0253296,0.0234985,0.0210571,-0.0424194,0.00549316,-0.0131226,0.010376,0.0283813
60,0,0.0137329,0.0088501,0.0204468,0.027771,0.0332642,0.03479,0.0183105,0.0234985,-0.0183105,-0.00762939,-0.0125122,0.0543213,0.0302124
60,1,0.0125122,0.00732422,0.0158691,0.0341797,0.0369263,0.0430298,0.03479,0.0314331,0.0299072,-0.00518799,-0.0213623,0.0274658,0.00793457
60,2,0.0149536,0.0585938,0.00213623,0.0125122,-0.0125122,0.0125122,0.0332642,0.0164795,0.000915527,-0.00823975,-0.027771,0.0137329,0.0234985
60,3,0.0241089,0.0210571,0.0289917,0.0402832,0.050354,0.0372314,-0.00823975,0.0363159,0.0247192,-0.015564,-0.00854492,0.0289917,0.0265503
60,4,0.0521851,0.0320435,0.0152588,0.0286865,0.0311279,0.012207,0.0430298,0.0189209,0.0308228,0.0112915,-0.0100708,0.0268555,0.0192261
61,0,0.00732422,0.0265503,0.00793457,0.0338745,0.0238037,0.0204468,0.010376,0.00671387,0.0140381,0.0183105,-0.03479,0.0146484,-0.000610352
61,1,0.0213623,-0.0332642,0.0411987,0.0247192,0.0576782,0.0564575,0.0213623,0.0268555,0.0231934,0.0299072,-0.0253296,0.00335693,0.0140381
61,2,0.0210571,0.00152588,0.0152588,0.0234985,0.0561523,0.0244141,0.0262451,0.038147,0.0234985,0.015564,-0.0296021,0.00213623,0.0234985
61,3,0.0195312,0.0289917,0.0234985,0.0134277,0.0314331,-0.0250244,0.0253296,0.0341797,0.0360107,0.00427246,-0.0204468,0.0115967,0.0119019
61,4,0.0332642,0.015564,0.0149536,0.0378418,0.0259399,0.0210571,0.0311279,0.0314331,0.0375366,0.020752,-0.022583,0.000915527,0.0534058
62,0,0.017395,0.0289917,0.0250244,0.0262451,0.0402832,0.0189209,0.022583,0.0323486,0.0195312,0.0161743,-0.0189209,0.0128174,0.0213623
62,1,0.0253296,0.0167847,0.022583,0.0320435,0.0350952,0.0186157,0.0186157,0.0274658,0.022583,-0.0650024,-0.0259399,0.012207,0.0213623
62,2,0.0115967,0.0088501,0.0213623,0.0756836,0.0241089,0.0201416,0.0613403,0.0256348,0.017395,0.0106812,-0.0192261,0.0012207,0.00976562
62,3,0.00610352,0.0106812,0.0158691,0.0241089,0.0280762,0.0292969,0.0384521,0.0375366,0.0177002,-0.017395,-0.0109863,0.00976562,0.0100708
62,4,0.00244141,0.015564,0.0256348,0.0167847,0.0341797,0.0149536,0.0189209,0.0299072,0.0088501,0.00335693,-0.0265503,0.0131226,0.0140381
63,0,0.010376,0.0195312,0.0231934,0.0210571,0.0231934,0.0222778,0.0241089,0.0296021,0.0817871,0.017395,-0.0109863,0.0222778,0.000610352
63,1,0.022583,0.0146484,0.0222778,0.00457764,0.0872803,0.0158691,0.0308228,0.0466919,0.032959,0.0195312,0.0125122,0.00183105,0.0241089
63,2,0.0244141,0.0112915,0.045166,0.00671387,0.0305176,0.0726318,0.0384521,0.0274658,0.0366211,0.00671387,-0.0100708,0.0189209,-0.00244141
63,3,0.0192261,0.0631714,0.00427246,0.0216675,0.0445557,0.00396729,0.0305176,0.0268555,0.0231934,0.0106812,-0.00183105,0.0164795,0.0158691
63,4,0.022583,0.0698853,0.020752,0.0170898,0.0579834,-0.0137329,0.0320435,0.0616455,0.0280762,0.0250244,-0.00549316,0.0335693,0.010376
64,0,0.00579834,0.0146484,0.0271606,0.0219727,0.0262451,-0.00823975,0.0219727,0.0213623,0.0674438,0.0280762,-0.022583,0.0186157,0.027771
64,1,-0.00335693,0.0375366,0.0183105,0.0247192,0.0588989,-0.00305176,0.0311279,0.0302124,0.0131226,-0.00244141,-0.00762939,0.0189209,0.0213623
64,2,-0.00274658,0.00946045,0.0360107,0.0140381,0.0213623,-0.06073,0.0585938,0.0280762,0.0390625,0.0189209,-0.00915527,0.0204468,0.0177002
64,3,0.012207,0.0152588,0.020752,0.0125122,0.038147,-0.00976562,0.0244141,0.0424194,0.00762939,0.0283813,-0.0216675,0.00610352,0.0250244
64,4,0.0183105,0.0231934,0.00976562,0.0137329,0.0518799,-0.0186157,0.0360107,0.0198364,0.0234985,0.0720215,-0.03479,0.0137329,0.0283813
65,0,0.0482178,0.0192261,0.017395,-0.0256348,0.0396729,-0.0115967,0.0335693,0.0344849,0.0256348,0.0180054,-0.0244141,0.0125122,0.0164795
65,1,0.000915527,0.012207,-0.0372314,0.0115967,0.0265503,0.0326538,0.0314331,0.0308228,0.00396729,0.0204468,-0.0234985,0.0216675,0.00396729
65,2,0.0115967,0.00457764,0.0195312,0.00244141,0.015564,0.0198364,0.0219727,0.0686646,0.0238037,0.0140381,-0.0320435,0.0125122,0.00518799
65,3,0.00274658,0.0201416,0.0164795,-0.00976562,0.0213623,0.0445557,0.043335,0.0402832,0.0292969,0.0158691,-0.0527954,0.00488281,0.00854492
65,4,0.00518799,0.0219727,0.012207,0.00396729,0.0473022,0.0488281,0.0219727,0.0299072,-0.0259399,0.0234985,-0.0164795,0.0396729,0.00701904
66,0,0.0112915,0.015564,0.0128174,0.00793457,0.0183105,0.0494385,0.0354004,0.0411987,0.0253296,0.0299072,-0.0247192,0.0222778,0.00732422
66,1,0.0299072,0.043335,0.0253296,0.0241089,0.043335,0.0830078,0.0299072,0.0317383,0.0350952,0.0250244,-0.022583,0.00701904,0.015564
66,2,0.0119019,0.00762939,0.00976562,0.0234985,0.0378418,0.0802612,0.0289917,0.0930786,0.0338745,0.0183105,-0.0210571,0.00427246,-0.00518799
66,3,0.0213623,0.0213623,0.0112915,0.0109863,0.0259399,0.0796509,0.043335,0.0708008,0.0112915,0.0311279,-0.0241089,0.0109863,0.0112915
66,4,0.0088501,0.0192261,0.0445557,0.0137329,0.0473022,0.0653076,0.0213623,0.0817871,0.0256348,0.0332642,-0.0268555,0.012207,0.000915527
67,0,0.0149536,0.0143433,0.027771,0.00518799,0.0296021,0.0842285,0.0323486,0.078125,0.0210571,0.0360107,-0.0210571,0.00183105,-0.0146484
67,1,0.0128174,0.0115967,-0.000305176,0.0283813,0.0088501,0.0619507,0.0213623,0.0732422,0.0469971,0.03479,-0.0234985,0.0125122,0.012207
67,2,0.00213623,0.0228882,0.0140381,0.0402832,-0.00793457,0.0704956,0.0299072,0.06073,0.0344849,0.032959,-0.00579834,0.0109863,0.015564
67,3,0.0283813,0.0152588,0.0216675,0.0216675,0.0314331,0.0231934,0.0219727,0.085144,-0.010376,0.0494385,-0.017395,-0.0109863,0.0189209
67,4,0.0811768,0.0134277,0.0125122,0.0341797,0.0012207,0.0671387,-0.0149536,0.0317383,0.0189209,0.0564575,0.0192261,0.0164795,0.0146484
68,0,0.00854492,0.0161743,0.0161743,0.045166,0.0100708,0.0363159,0.0283813,-0.0241089,0.0204468,0.0369263,-0.0109863,-0.00976562,0.00762939
68,1,0.0283813,0.00915527,0.0167847,0.043335,0.00701904,0.0195312,0.0177002,0.0137329,0.00549316,0.0466919,-0.0189209,-0.0259399,0.00976562
68,2,0.0183105,0.00640869,0.0384521,0.0442505,0.0717163,0.0201416,0.0238037,0.090332,0.0192261,0.0469971,-0.0180054,0.0311279,0.00305176
68,3,0.0366211,0.057373,0.0146484,0.0332642,0.0857544,0.020752,0.0167847,0.057373,0.0271606,0.0457764,-0.0308228,0.0189209,0.00854492
68,4,-0.0253296,0.0274658,0.0152588,0.0311279,0.000610352,0.0375366,0.0210571,-0.0128174,0.0216675,0.0344849,0.0204468,0.0189209,0.022583
69,0,0.00732422,0.0198364,-0.00274658,0.0256348,0.00946045,0.0271606,0.0387573,0.00244141,0.0280762,0.0338745,-0.0198364,0.0231934,-0.0280762
69,1,0.0268555,0.00976562,0.0119019,0.083313,0.0274658,0.00488281,-0.0183105,0.00671387,0.0201416,0.0436401,-0.0170898,0.00579834,0.0180054
69,2,0.0283813,0.0210571,0.0198364,0.00152588,0.020752,-0.0195312,0.0396729,0.00640869,0.0161743,0.0396729,-0.0210571,0.020752,0.00823975
69,3,0.0500488,0.0222778,0.0137329,-0.0360107,0.0128174,-0.000305176,0.0640869,0.00396729,0.0338745,0.0485229,-0.0219727,0.0198364,0.0234985
69,4,0.0143433,0.0436401,0.00457764,0.0177002,0.0283813,-0.012207,0.0274658,-0.0268555,0.0363159,0.0439453,0.00518799,0.00366211,0.0112915
70,0,0.0250244,0.00762939,0.00854492,-0.00732422,0.0219727,-0.0350952,0.0390625,-0.00183105,0.0454712,0.0357056,-0.0204468,-0.0469971,0.0140381
70,1,0.0143433,0.0149536,-0.0436401,0.0143433,0.0234985,0.03479,0.0204468,0.000305176,-0.0183105,0.0421143,-0.0222778,0.0469971,0.00457764
70,2,0.0128174,0.00671387,0.00396729,0.0152588,0.0701904,-0.0405884,0.0219727,0.00579834,0.0366211,0.0476074,-0.022583,0.0253296,0.0140381
70,3,0.0289917,0.00793457,0.00488281,0.00152588,0.0286865,-0.0744629,0.0170898,0.00793457,0.0308228,0.0332642,-0.0366211,0.0274658,0.0396729
70,4,0.0216675,0.0100708,0.0463867,-0.00976562,0.0231934,-0.0799561,-0.0292969,0.0210571,0.0186157,0.0436401,-0.0283813,0.0253296,-0.000610352
71,0,0.015564,-0.00579834,0.0222778,-0.00946045,0.0332642,-0.103455,0.0286865,0.0250244,0.0622559,0.045166,-0.0320435,0.010376,0.00976562
71,1,0.0219727,0.0463867,0.00518799,-0.00549316,-0.00366211,-0.0509644,0.0320435,-0.0289917,0.0360107,0.0366211,-0.0222778,0.0183105,0.0143433
71,2,0.0161743,0.0354004,0.0296021,-0.00488281,-0.0296021,-0.0335693,0.0393677,0.00732422,0.0286865,0.0421143,-0.0262451,0.0262451,-0.00396729
71,3,0.0219727,0.000915527,0.0158691,-0.0131226,0.0262451,0.00915527,0.020752,0.0689697,0.0241089,0.0473022,0.0115967,0.0234985,0.0192261
71,4,0.038147,0.0183105,0.0234985,-0.010376,0.0283813,0.0473022,0.0357056,0.0180054,0.0262451,0.0604248,-0.0244141,0.0228882,0.00732422
72,0,0.0231934,0.0201416,0.00427246,-0.0106812,0.00579834,0.010376,0.0247192,0.0167847,-0.00274658,0.0546265,-0.0317383,-0.0289917,-0.00823975
72,1,0.0546265,0.0128174,0.00762939,-0.00305176,0.0292969,0.0997925,0.0384521,0.0360107,0.0256348,0.0552368,-0.00183105,0.00244141,0.00549316
72,2,0.0350952,-0.0201416,0.027771,0.00457764,0.017395,0.0979614,0.0201416,0.0363159,0.0350952,0.0445557,-0.0418091,0.0497437,-0.00671387
72,3,0.0186157,0.0250244,0.0308228,0.00549316,0.00762939,0.115051,0.0292969,0.0363159,0.0372314,0.0558472,-0.0250244,0.010376,0.0109863
72,4,0.0250244,0.00640869,0.0177002,0.0177002,0.0146484,0.123596,0.0289917,0.0366211,0.0378418,0.038147,-0.0170898,0.00976562,0.0100708
73,0,0.0405884,0.00701904,0.00152588,0.0274658,-0.00213623,0.133362,0.0814819,0.0473022,0.0302124,0.0793457,-0.0125122,0.03479,0.000610352
73,1,0.0332642,0.0253296,0.0485229,0.0289917,0.0161743,0.11322,0.0158691,0.0198364,0.0341797,0.0271606,-0.0210571,0.0259399,0.00518799
73,2,0.0152588,0.0161743,0.020752,0.0265503,0.00549316,0.115967,0.0106812,0.0143433,0.0323486,0.0198364,-0.0192261,0.0250244,0.0552368
73,3,0.0210571,-0.0317383,0.00976562,0.0302124,0.0430298,0.078125,0.0256348,-0.000610352,0.0167847,0.0549316,-0.00976562,0.0167847,0.015564
73,4,0.00732422,0.0195312,0.0119019,0.0286865,0.00579834,0.0561523,0.0234985,0.0213623,0.0231934,0.0405884,-0.0195312,0.0314331,-0.00915527
74,0,0.00854492,0.0161743,-0.00396729,0.027771,0.0195312,0.0259399,0.032959,0.0344849,0.0457764,0.0408936,-0.022583,0.0231934,0.0274658
74,1,0.0158691,-0.0350952,-0.00213623,0.0256348,0.00396729,-0.00549316,0.0241089,0.043335,0.0317383,0.0479126,-0.0222778,0.0152588,0.00793457
74,2,0.0274658,0.0128174,0.00305176,0.012207,0.0180054,-0.0161743,0.0265503,0.0274658,0.0204468,0.0717163,-0.0183105,0.00366211,0.0134277
74,3,0.0302124,0.022583,0.0250244,-0.000915527,0.0167847,0.00610352,0.0402832,0.0274658,0.0231934,0.0534058,-0.0198364,0.0146484,0.0616455
74,4,0.0189209,0.0161743,-0.00671387,0.0317383,0.0183105,0.0131226,0.0140381,0.0350952,0.0369263,0.0488281,-0.0238037,0.0238037,0.0131226
75,0,0.0244141,0.0198364,0.020752,0.0363159,0.0164795,-0.0247192,-0.0167847,0.0314331,0.0350952,0.0524902,-0.0125122,0.0161743,0.0344849
75,1,0.0265503,0.0210571,0.0189209,0.0308228,0.00518799,-0.0198364,0.0344849,0.0302124,0.0323486,0.0439453,-0.0250244,0.0167847,0.0131226
75,2,0.0344849,0.0137329,0.0112915,0.0164795,0.0299072,-0.0369263,0.0167847,0.0289917,0.0378418,0.0512695,-0.0323486,0.00335693,0.0231934
75,3,0.0308228,0.00732422,0.0201416,0.0115967,0.022583,-0.0671387,0.0357056,-0.020752,0.0454712,0.0375366,-0.0262451,0.0350952,0.0299072
75,4,0.0326538,0.0268555,0.0192261,0.00701904,0.0268555,-0.0762939,0.0213623,0.0268555,0.039978,0.0488281,-0.0497437,0.0112915,0.022583
76,0,0.0256348,0.0927734,0.0137329,-0.0140381,0.0674438,-0.0784302,0.017395,0.0341797,0.0454712,0.0457764,-0.0244141,0.0262451,0.015564
76,1,0.0222778,0.0112915,0.0360107,-0.00762939,0.03479,-0.0482178,0.0268555,0.0247192,0.0521851,0.0234985,-0.0354004,0.0402832,0.0360107
76,2,0.0262451,0.00793457,-0.00244141,0.00732422,0.0341797,-0.0253296,0.0640869,0.0253296,0.0436401,0.090332,-0.0344849,0.00946045,0.0195312
76,3,0.0213623,0.0436401,0.015564,-0.00854492,0.017395,0.0109863,0.0201416,0.0271606,0.0323486,0.0442505,-0.0213623,-0.0271606,0.015564
76,4,0.0430298,0.0256348,0.0228882,0.00579834,0.0283813,0.03479,0.0308228,0.022583,0.0317383,0.0473022,-0.0378418,0.0146484,0.0128174
77,0,0.0299072,0.0244141,0.015564,-0.012207,0.0265503,0.0320435,0.0335693,0.0320435,0.0311279,0.0363159,-0.0305176,0.0311279,0.000915527
77,1,0.0289917,0.0256348,0.0271606,-0.0125122,0.0274658,0.0686646,0.0222778,0.0253296,0.0323486,0.0582886,-0.0393677,0.0292969,0.0326538
77,2,0.0326538,0.0256348,-0.0012207,-0.0115967,0.0253296,0.0762939,0.0454712,0.0360107,0.0421143,0.0421143,-0.0344849,0.0286865,0.0350952
77,3,0.0268555,0.0137329,0.0115967,-0.00549316,0.0183105,0.0753784,0.0314331,0.0292969,0.055542,0.0512695,-0.0445557,0.0299072,0.0378418
77,4,0.0241089,0.0335693,0.0106812,0.00640869,-0.00213623,0.108948,0.0286865,0.0357056,0.0363159,0.0576782,-0.0302124,0.0299072,0.0314331
78,0,0.0396729,0.0164795,0.0491333,0.00793457,-0.0119019,0.0793457,0.0195312,0.0296021,0.0335693,0.055542,-0.0360107,0.0292969,0.0323486
78,1,0.0918579,0.0280762,0.0088501,0.000305176,-0.00396729,0.137024,0.0283813,0.0286865,0.0204468,0.0585938,-0.03479,0.0302124,0.012207
78,2,0.0335693,-0.027771,0.0204468,0.0546265,0.0274658,0.0811768,0.0143433,0.0390625,0.0170898,0.0387573,-0.0430298,0.0198364,0.0241089
78,3,0.0332642,0.0234985,0.00793457,0.0564575,0.0131226,0.065918,0.022583,-0.010376,0.0286865,0.0405884,-0.0231934,0.0354004,0.0292969
78,4,0.0396729,0.0189209,0.0289917,0.0662231,0.00823975,0.0320435,0.0164795,0.0280762,0.0234985,0.0497437,-0.0305176,0.0250244,0.0268555
79,0,0.03479,-0.0134277,0.0152588,0.0643921,0.000915527,0.032959,0.0149536,0.050354,0.0543213,0.045166,-0.0469971,0.012207,0.0335693
79,1,0.0219727,0.00823975,0.00946045,0.0668335,0.00213623,0.0125122,0.0341797,0.0283813,0.0210571,-0.000305176,-0.0274658,0.0366211,0.0552368
79,2,0.0231934,-0.0216675,0.0222778,0.0515747,-0.0152588,0.012207,0.0274658,-0.0354004,0.0164795,0.0479126,-0.0314331,0.0180054,0.0231934
79,3,0.0167847,-0.0326538,0.0149536,0.0350952,0.00427246,-0.00396729,0.0299072,-0.000610352,0.0253296,0.0259399,-0.0268555,0.0222778,-0.0164795
79,4,0.0338745,-0.0369263,0.022583,0.0476074,0.0088501,-0.00793457,0.0549316,0.0140381,0.0250244,0.0442505,-0.00579834,0.0271606,0.0262451
80,0,0.0302124,-0.0384521,0.0268555,0.0350952,0.00671387,0.00915527,0.0244141,0.0283813,0.00793457,0.043335,-0.0393677,0.0198364,0.0308228
80,1,0.0427246,-0.0305176,0.0302124,0.0250244,0.0274658,0.00793457,0.03479,0.0350952,0.0164795,0.0299072,-0.0119019,0.0393677,0.0390625
80,2,0.0234985,-0.0466919,0.0299072,0.000915527,0.00305176,-0.0219727,0.0234985,0.0231934,0.0308228,0.0439453,-0.0396729,0.0372314,0.0201416
80,3,0.0183105,-0.012207,0.0415039,0.020752,0.0131226,-0.0341797,0.00976562,0.027771,0.00244141,0.0411987,-0.0408936,0.03479,0.09552
80,4,0.0234985,0.123596,0.0360107,0.00427246,0.0204468,-0.0369263,0.022583,0.0128174,0.0268555,0.0469971,-0.0448608,0.0869751,0.0274658
81,0,0.0491333,0.118713,0.0296021,0.0604248,0.00915527,-0.0488281,0.017395,0.00305176,0.0308228,0.0357056,-0.0463867,0.0393677,0.0283813
81,1,0.0366211,0.110168,0.0778198,0.00671387,0.0286865,0.0262451,0.0323486,0.0219727,0.0680542,0.0418091,-0.0384521,0.0393677,0.0424194
81,2,0.0302124,0.0827026,0.0161743,-0.000610352,0.00427246,0.0314331,0.0247192,-0.00671387,0.0689697,0.0302124,-0.0387573,0.057373,0.0335693
81,3,0.043335,0.0759888,0.038147,-0.00793457,0.0228882,-0.0628662,0.0268555,0.0167847,0.0366211,0.0350952,-0.0469971,0.0311279,0.0195312
81,4,0.0283813,0.0579834,-0.00793457,0,0.0363159,-0.0167847,0.0170898,0.0128174,0.0497437,0.0354004,-0.0476074,0.0210571,0.0363159
82,0,0.0198364,0.0405884,0.0201416,0.00335693,0.0204468,-0.0268555,0.0228882,0.00274658,0.045166,0.0146484,-0.0274658,0.0289917,0.0344849
82,1,0.0228882,0.0421143,0.0253296,-0.00793457,0.032959,-0.0253296,0.00946045,0.0100708,0.0585938,0.0271606,-0.0350952,0.0109863,0.0244141
82,2,0.0299072,0.0286865,0.0228882,0.0476074,0.0317383,-0.0473022,0.0109863,0.0280762,0.0320435,0.0393677,-0.0402832,0.0460815,0.0326538
82,3,0.055542,0.0195312,0.0338745,-0.0256348,0.0421143,-0.0234985,0.0134277,-0.00305176,0.0354004,0.0369263,-0.0714111,0.0341797,0.0500488
82,4,-0.0152588,-0.000610352,0.0314331,-0.0177002,0.0305176,-0.0106812,0.0106812,0.0100708,0.0335693,0.0506592,-0.00457764,0.0360107,0.0375366
83,0,0.0338745,0.00457764,0.0457764,-0.00671387,0.0305176,0.022583,0.00854492,0.0149536,0.0692749,0.0311279,-0.0302124,-0.00671387,0.0286865
83,1,0.0320435,0.020752,0.0302124,-0.000915527,0.0177002,0.0344849,0.0271606,0.00579834,0.0323486,0.0210571,-0.022583,0.0881958,0.0238037
83,2,0.0408936,0.0140381,0.00823975,-0.00976562,0.00915527,0.0646973,0.0372314,0.0201416,0.03479,0.0531006,-0.0268555,0.0250244,-0.0320435
83,3,0.0369263,-0.022583,0.0317383,0.0167847,0.0360107,0.0598145,0.015564,0.0305176,0.0244141,0.039978,0.00396729,0.0531006,0.0244141
83,4,0.0314331,0.0222778,-0.0186157,0.00579834,0.0183105,0.0592041,0.00549316,0.0210571,0.0610352,0.0674438,-0.00579834,0.043335,0.0289917
84,0,0.0997925,0.0460815,0.0341797,0.0231934,0.0088501,0.0991821,0.0112915,0.0140381,0.0158691,0.0396729,-0.0164795,0.0289917,0.032959
84,1,0.067749,0.043335,0.0473022,0.0305176,0.0454712,0.0823975,0.0186157,0.022583,0.0262451,0.0497437,-0.0265503,0.0430298,0.0305176
84,2,-0.0088501,0.0616455,0.0518799,-0.0418091,0.0256348,0.0747681,0.0158691,0.0198364,0.00305176,0.0656128,0.00396729,0.0183105,0.0152588
84,3,0.0967407,0.0796509,0.0564575,0.0958252,0.00457764,0.0469971,0.0805664,0.017395,-0.0137329,0.132141,0.0308228,0.0271606,0.0540161
84,4,0.0396729,0.112,0.0924683,0.039978,-0.00366211,0.0393677,0.0167847,0.0259399,0.00762939,0.0668335,-0.0152588,0.027771,-0.00183105
85,0,0.0341797,0.14801,0.0726318,0.055542,0.0271606,-0.00274658,0.00610352,0.0164795,-0.00976562,0.0741577,-0.0137329,0.0231934,0.0262451
85,1,0.0454712,0.0762939,0.0799561,0.0271606,0.0186157,-0.0180054,0.0131226,0.0115967,-0.012207,0.0762939,-0.0360107,0.0421143,0.0909424
85,2,0.0335693,0.0735474,0.0143433,0.0378418,0.0708008,0.0238037,0.0189209,0.0262451,0.00518799,0.0674438,-0.0177002,0.0350952,0.0228882
85,3,0.0222778,0.0192261,0.0213623,0.0274658,0.0137329,0.0186157,0.015564,0.0180054,-0.0140381,0.0753784,-0.0265503,0.0244141,0.0350952
85,4,0.0164795,0.0134277,0.0167847,0.0558472,0.0314331,0.0192261,0.0228882,0.020752,0.0198364,0.050354,-0.0201416,0.0170898,0.0256348
86,0,0.0177002,0.0222778,-0.0222778,0.0363159,0.0100708,0.0506592,0.0134277,0.0286865,0.0445557,0.0482178,-0.0268555,0.0549316,0.0192261
86,1,0.0338745,0.0164795,-0.0244141,0.0366211,0.0125122,0.0714111,0.00488281,-0.000915527,-0.012207,0.00427246,-0.0158691,-0.0244141,0.0109863
86,2,0.0350952,0.00488281,-0.0686646,0.0231934,-0.0259399,0.0613403,0.00244141,0.00518799,0.00671387,0.0698853,-0.0192261,0.0140381,0.0177002
86,3,0.0216675,-0.00579834,-0.0585938,0.0387573,-0.00488281,0.0445557,-0.0372314,-0.0158691,0.00976562,0.0735474,-0.0131226,0.0244141,0.0189209
86,4,0.0137329,0.00549316,-0.0619507,0.0289917,0.0164795,0.0512695,0.0204468,0.0213623,0.00152588,0.0637817,-0.0454712,0.0357056,0.0357056
87,0,0.0341797,-0.00915527,-0.105591,0.0198364,0.0146484,0.0143433,0.0222778,0.00762939,0.010376,0.0753784,-0.0259399,0.0482178,0.0366211
87,1,0.0302124,0.0201416,-0.0601196,0.0186157,-0.0265503,0.022583,0.0198364,0.0253296,0.00610352,0.0775146,-0.0387573,0.0283813,0.0418091
87,2,0.0198364,-0.0189209,-0.0656128,0.00793457,0.0476074,-0.00305176,0.0195312,0.0137329,0.0125122,0.105896,-0.0292969,0.0317383,0.0473022
87,3,0.0421143,-0.0241089,0.00152588,0.0308228,0.0268555,-0.0552368,0.0125122,0.0112915,0.0283813,0.0646973,-0.0219727,0.0296021,0.0421143
87,4,0.0219727,-0.0170898,0.090332,0.0189209,0.0222778,-0.0198364,0.0195312,0.0384521,0.0119019,-0.0244141,-0.062561,0.0180054,0.0344849
88,0,0.0210571,0.0115967,-0.0726318,0.0143433,0.0158691,-0.022583,0.0216675,0.0183105,0.00213623,0.0341797,-0.0427246,0.0326538,0.0448608
88,1,0.020752,0.0918579,-0.055542,0.0372314,0.0137329,-0.0335693,0.0366211,0.0161743,0.0372314,0.0765991,-0.0311279,0.0128174,0.0375366
88,2,0.00976562,0.128784,0.0131226,0.0198364,0.0256348,-0.0271606,0.010376,0.0189209,0.0177002,0.0759888,-0.0576782,0.0378418,0.032959
88,3,0.0540161,0.131531,0.122375,0.0100708,0.0241089,-0.0180054,0.0112915,0.00823975,0.0250244,0.0338745,-0.055542,0.0375366,0.0799561
88,4,0.0396729,0.0823975,0.0933838,0.0204468,0.0128174,0.0131226,0.0244141,0.00732422,-0.00366211,0.0628662,-0.0531006,0.043335,0.0454712
89,0,0.0283813,0.0878906,0.0289917,-0.00274658,0.0164795,0.0088501,0.0195312,0.0201416,0.00854492,0.0585938,-0.0250244,-0.0238037,0.039978
89,1,0.0320435,0.0805664,0.020752,0.0115967,0.0668335,-0.00244141,0.00915527,0.0106812,0.00762939,0.0631714,-0.0576782,0.0201416,0.012207
89,2,0.0332642,0.0619507,0.131836,0.0125122,0.0387573,0.00549316,0.0167847,0.015564,0.00335693,0.0616455,-0.0317383,0.0384521,0.0259399
89,3,0.0302124,0.0454712,0.057373,0.00274658,0.0332642,0.0430298,0.012207,0.0219727,0.00396729,-0.0164795,-0.0332642,0.0222778,0.0311279
89,4,0.0244141,-0.00305176,0.072937,0.0335693,-0.00976562,0.055542,0.00274658,-0.010376,0.00793457,0.0332642,-0.0289917,0.0131226,0.0421143
90,0,0.0253296,0.0372314,0.0927734,0.0424194,0.0186157,0.0552368,0.0137329,0.010376,0.00457764,0.0488281,-0.027771,0.0100708,0.0320435
90,1,0.0289917,0.0234985,0.105286,0.0442505,0.0213623,0.0357056,0.00701904,0.00427246,-0.0219727,0.067749,-0.0326538,0.0299072,0.027771
90,2,0.022583,0.0402832,0.0790405,0.0463867,0.0238037,0.0476074,0.0106812,0.0253296,-0.0012207,0.055542,-0.0320435,0.00823975,0.0238037
90,3,0.0125122,0.00396729,0.0769043,0.0491333,0.0250244,0.0524902,0.0128174,0.0354004,-0.0128174,0.0708008,-0.0219727,0.022583,0.0323486
90,4,0.00518799,0.0344849,0.0784302,0.0256348,0.0360107,0.0350952,0.0344849,0.00579834,-0.00701904,0.0927734,-0.0262451,0.0378418,0.0299072
91,0,-0.0158691,0.0125122,0.0531006,0.0167847,0.0369263,0.0280762,0.0198364,0.0247192,-0.0128174,0.0567627,-0.0262451,0.0271606,0.0363159
91,1,0.0280762,0.00396729,0.0814819,0.0463867,0.0186157,0.0119019,0.00640869,0.012207,-0.0674438,0.0561523,-0.0256348,0.0146484,0.0299072
91,2,0.0140381,0.0152588,0.0772095,0.0604248,0.0152588,-0.00488281,0.00152588,0.0210571,-0.0131226,0.0558472,-0.0198364,0.0280762,0.0323486
91,3,0.0250244,0.0146484,0.0683594,0.0305176,0.0143433,0.00793457,0.017395,-0.012207,-0.0253296,0.0549316,-0.0198364,0.0299072,0.015564
91,4,0.0198364,0.00457764,0.0445557,0.0280762,0.0427246,-0.010376,0.0204468,0.0430298,-0.0115967,0.0485229,-0.0350952,0.0427246,0.0238037
92,0,0.0332642,0.0192261,0.0506592,0.0457764,0.0268555,0.0289917,0.0259399,0.0131226,-0.0271606,0.0650024,-0.0189209,0.0299072,0.0234985
92,1,0.0183105,0.03479,0.0430298,0.0305176,0.0100708,0.00701904,0.0088501,-0.00823975,-0.010376,0.0476074,-0.0177002,0.0500488,0.0296021
92,2,0.0326538,0.0405884,0.0570679,0.0369263,0.0302124,0.0338745,0.0296021,0.0131226,-0.00915527,0.0488281,-0.0198364,0.0311279,-0.0183105
92,3,0.0323486,0.0228882,0.0363159,0.0714111,0.0378418,0.0411987,-0.0146484,0.0170898,-0.00488281,0.0311279,-0.0167847,0.0259399,0.0366211
92,4,0.0332642,0.0228882,0.0012207,0.015564,0.0427246,0.0466919,0.0186157,0.0250244,-0.032959,0.043335,-0.0238037,0.020752,0.0350952
93,0,0.0357056,0.0195312,0.0317383,0.0231934,0.0378418,0.0363159,0.0216675,0.0332642,-0.0222778,0.0411987,-0.0119019,0.0350952,0.0302124
93,1,0.0280762,0.0158691,0.0332642,0.0234985,0.0317383,0.0473022,0.0250244,0.0109863,-0.00610352,0.0393677,-0.0158691,0.0210571,0.0219727
93,2,0.0210571,0.0204468,-0.319824,0.0149536,0.0741577,0.0262451,0.012207,0.0177002,0.0134277,0.0619507,-0.00244141,0.0439453,0.020752
93,3,0.00915527,0.0134277,-0.831909,0.0259399,0.0335693,0.0332642,0.0088501,0.0109863,-0.00946045,0.0396729,-0.0192261,0.0265503,0.0265503
93,4,0.0256348,0.0201416,-0.546875,0.0402832,0.0350952,0.0393677,0.00579834,0.00762939,0.00488281,0.0177002,-0.0128174,0.0231934,0.0491333
94,0,0.0177002,0.00671387,-1.62781,0.0393677,0.0283813,0.0439453,0.0259399,0.0253296,0.00701904,0.0369263,-0.0631714,0.0366211,0.039978
94,1,0.00701904,0.0256348,-1.83167,0.0454712,0.0363159,0.0387573,0.0222778,0.0195312,-0.0289917,0.039978,-0.022583,-0.0146484,0.0402832
94,2,0.0158691,0.0167847,-2.17041,0.0338745,-0.0274658,0.0250244,0.0161743,-0.00518799,0.00305176,0.0320435,-0.0259399,0.0146484,0.0518799
94,3,0.0177002,0.0402832,-2.82196,0.0262451,0.0411987,0.0305176,0.0158691,0.194702,-0.00579834,0.0369263,-0.0244141,0.0131226,0.0317383
94,4,-0.0283813,0.0180054,-1.90735,-0.0152588,0.022583,0.0366211,0.0180054,0.0192261,0.0167847,0.0411987,-0.0283813,0.0161743,0.0146484
95,0,0.00488281,0.0161743,0.575256,0.0323486,0.0265503,0.0219727,0.00823975,0.00457764,0.0115967,0.0134277,-0.0164795,0.0222778,-0.0088501
95,1,0.0125122,0.0274658,1.21826,0.03479,0.038147,0.0369263,0.0540161,0.0390625,0.0134277,0.038147,-0.0344849,0.0286865,0.0372314
95,2,0.0210571,0.0183105,1.2149,0.0396729,0.0256348,0.0253296,0.0204468,0.0170898,0.0180054,0.00671387,-0.0131226,0.00427246,0.0158691
95,3,0.0088501,0.0195312,1.21033,-0.0088501,0.0332642,0.0222778,0.03479,0.0930786,0.0161743,-0.00701904,-0.0231934,0.0216675,0.0411987
95,4,0.012207,-0.0112915,0.0588989,0.0234985,-0.000305176,0.0408936,0.0170898,-0.00579834,0.0137329,0.0360107,-0.00244141,-0.00793457,0.0302124
96,0,0.00366211,-0.0140381,-0.163879,0.0341797,0.0219727,0.0479126,0.0186157,-0.0259399,0.0109863,0.0241089,-0.0198364,0.0152588,0.0363159
96,1,0.0311279,-0.0265503,-0.632324,0.0183105,0.020752,0.020752,0.0125122,-0.0341797,-0.0280762,0.0350952,-0.020752,0.0793457,0.0543213
96,2,0.00549316,-0.0479126,-2.45911,0.0653076,0.0320435,0.0195312,0.0106812,-0.020752,0.0112915,0.0363159,0.0012207,0.0241089,0.0326538
96,3,0.0311279,-0.0231934,0.354919,0.010376,0.0186157,-0.00518799,0.0393677,-0.015564,0.0131226,0.0204468,-0.022583,0.0210571,0.0213623
96,4,0.0241089,-0.0479126,0.489197,0.0439453,0.0186157,-0.0302124,0.0415039,-0.00640869,-0.000610352,0.0430298,-0.0115967,0.0234985,0.0457764
97,0,0.0323486,-0.0469971,0.0445557,0.0512695,0.0283813,-0.0454712,0.0143433,0.0149536,0.0128174,0.0314331,-0.0292969,0.0689697,0.0531006
97,1,0.0253296,0.0131226,0.260315,0.0732422,0.0317383,-0.0415039,0.03479,-0.0515747,0.00518799,0.03479,-0.0234985,0.0241089,0.0405884
97,2,0.0180054,0.0717163,-0.290527,0.0393677,-0.038147,-0.0384521,0.0161743,0.00305176,0.00793457,0.0308228,-0.0152588,0.0375366,0.0274658
97,3,0.0161743,0.0909424,-1.26038,0.0436401,0.0582886,-0.0396729,0.0177002,0.00579834,-0.00244141,0.032959,-0.0619507,0.0286865,0.0204468
97,4,0.0234985,0.0469971,-0.528564,0.0439453,0.0335693,-0.0213623,0.020752,0.00396729,0.0134277,0.0411987,-0.0158691,0.012207,0.0317383
98,0,0.012207,0.0500488,-0.286255,0.0201416,0.0274658,0.0088501,0.0253296,0.0292969,0.00457764,0.0372314,-0.020752,0.0311279,0.0299072
98,1,-0.00518799,0.032959,-2.30804,0.0491333,0.0274658,0.00610352,0.043335,0.0146484,0.0186157,0.0360107,-0.0265503,0.00732422,0.0286865
98,2,0.0204468,0.0622559,-1.60004,0.0439453,0.0430298,0.043335,0.00366211,-0.0012207,0.00152588,0.0112915,-0.0219727,-0.0317383,0.0280762
98,3,0.0265503,0.0619507,-0.140991,0.0463867,0.0161743,0.0588989,0.0265503,0.00457764,-0.0012207,0.0405884,0.0204468,-0.0128174,0.0256348
98,4,0.0259399,0.039978,0.978088,0.0195312,0.0106812,0.0570679,-0.00518799,0.0262451,0.00579834,0.032959,0.0439453,0.00610352,-0.0317383
99,0,0.0152588,0.0296021,-0.682068,0.0372314,0.0143433,0.071106,0.0338745,0.0115967,0.0134277,0.0473022,-0.00274658,0.0189209,0.0927734
99,1,0.00549316,0.0616455,-0.219116,0.0527954,0.0238037,0.0830078,0.0265503,0.00274658,0.0149536,0.0460815,-0.0115967,0.00488281,0.0152588
99,2,0.00671387,0.0637817,1.41052,0.0582886,0.0100708,0.0588989,0.0265503,1.36139,0.00762939,0.0357056,0.00457764,0.0244141,-0.0250244
99,3,0.0366211,0.0592041,1.00708,0.0439453,0.0170898,0.015564,0.0195312,0.777893,0.00396729,0.0485229,-0.0253296,0.0109863,0.0131226
99,4,0.0283813,0.0479126,1.53625,0.0497437,0.0250244,0.027771,0.0366211,3.04321,0.0238037,0.0222778,-0.0372314,0.0213623,0.0311279
100,0,0.0491333,0.0186157,1.63696,0.0390625,0.0201416,0.0308228,0.0335693,2.91412,0.0177002,0.0460815,-0.0192261,0.0167847,0.0222778
100,1,0.0238037,-0.000610352,2.1286,0.0363159,0.0442505,0.0405884,0.0183105,2.57172,0.00427246,0.0411987,-0.0125122,0.0125122,0.0228882
100,2,0.0164795,0.0836182,1.17432,0.050354,-0.0204468,0.0402832,0.0384521,2.7298,0.03479,0.0238037,-0.0234985,0.00732422,0.0332642
100,3,0.00274658,0.0137329,1.53046,0.0338745,0.00976562,0.0546265,0.0344849,2.64465,0.0201416,0.015564,-0.0134277,0.0167847,0.0262451
100,4,0.0219727,0.015564,2.01569,0.0430298,0.020752,0.0088501,0.0274658,1.77307,0.0708008,0.0186157,-0.0228882,0.015564,0.0274658
101,0,0.0186157,0.00579834,1.63177,0.0344849,0.0302124,0.0479126,0.0372314,1.91284,0.0088501,0.0805664,-0.0219727,-0.0109863,0.000305176
101,1,0.00549316,-0.0357056,1.7099,0.0286865,-0.0219727,0.0323486,0.0335693,0.765076,0.0222778,0.050354,-0.0125122,0.0140381,0.0350952
101,2,0.0198364,0.00671387,1.56677,0.0231934,0.0271606,0.0183105,0.000305176,0.970459,0.0195312,-0.00549316,-0.0592041,0.0201416,0.0210571
101,3,0.0216675,0.00579834,1.22223,0.0115967,0.0317383,0.0302124,0.0292969,1.24451,0.0259399,0.0491333,-0.0210571,0.0115967,0.0115967
101,4,-0.000915527,0.00732422,1.22711,0.00549316,0.0292969,0.0088501,0.0427246,-1.45264,0.0204468,0.0454712,-0.0131226,0.0128174,0.0231934
102,0,0.00976562,0.0134277,0.679626,0.000610352,0.0427246,0.00305176,0.0350952,0.928345,0.0177002,0.0323486,-0.0180054,0.0198364,0.0268555
102,1,0.0088501,0.0808716,-0.0360107,0.00396729,0.106812,0.017395,0.0234985,-0.579529,0.0158691,0.0387573,-0.0256348,0.0262451,0.0219727
102,2,0.0195312,0.0164795,-0.153198,-0.00366211,0.0445557,0.00854492,0.0344849,0.656738,0.00518799,0.0320435,-0.0265503,0.0262451,0.0469971
102,3,0.0143433,0.0375366,-0.334167,0.010376,0.0671387,0.00183105,0.0375366,-1.63635,0.0192261,0.0439453,-0.0241089,-0.00915527,-0.00488281
102,4,0.0656128,0.0292969,-0.189209,0.0323486,0.038147,0.0201416,0.0418091,-0.03479,0.0137329,0.03479,-0.0128174,0.015564,0.0210571
103,0,0.0274658,0.0149536,0.476379,-0.0292969,0.0396729,0.0100708,0.0421143,-2.00562,-0.00183105,-0.163879,-0.0134277,0.022583,0.0128174
103,1,0.015564,0.00549316,0.604858,0.00488281,0.0350952,0.0448608,0.0491333,-2.56744,0.00854492,-0.0564575,-0.0143433,0.0140381,0.0253296
103,2,0.0238037,0.010376,0.854492,0.0234985,0.0390625,0.00183105,0.0430298,-1.79169,0.00671387,0.0735474,-0.0140381,0.0088501,0.00640869
103,3,0.0357056,0.0164795,0.908508,-0.0161743,0.0274658,0.0576782,0.0375366,0.575256,-0.000915527,0.0131226,-0.0106812,0.00396729,0.00854492
103,4,0.0622559,0.0106812,0.770264,0.0531006,0.0253296,0.067749,-0.00396729,0.567932,-0.00366211,-0.13916,0.00213623,0.00640869,-0.0305176
104,0,0.017395,-0.00488281,0.697021,0.0280762,0.032959,0.161438,0.0427246,1.0788,-0.0546265,-0.349731,-0.00671387,-0.0479126,0.00518799
104,1,0.0143433,0.0198364,0.597229,0.0698853,0.00488281,0.0927734,0.0439453,-1.43188,0.0201416,0.0759888,-0.000305176,0.00762939,-0.000610352
104,2,0.017395,0.0338745,0.516663,0.045166,0.0643921,0.100098,0.0387573,-2.46887,0.000915527,-0.222778,-0.00549316,0.0201416,0.00579834
104,3,0.0131226,0.0280762,0.439148,0.0436401,0.0177002,0.0964355,0.0363159,-2.16064,0.0140381,-0.141602,-0.0186157,0.00640869,0.0109863
104,4,0.0369263,0.0158691,0.427246,0.0360107,0.0128174,0.0430298,0.0396729,-1.54816,0.0384521,0.137634,-0.0253296,-0.0405884,0.00915527
105,0,0.0222778,0.00732422,0.295715,0.0357056,0.0183105,0.0610352,0.0405884,-1.17706,-0.000915527,0.150146,-0.0213623,-0.0384521,0.00793457
105,1,0.0143433,0.0143433,0.268555,0.0439453,0.0177002,0.0488281,0.0283813,0.741272,0.00762939,0.14679,-0.0210571,0.0222778,0.0735474
105,2,0.0454712,0.0192261,0.181274,0.0473022,0.0299072,0.0585938,0.0488281,1.12213,0.00671387,0.130005,-0.0332642,0.00427246,0.0265503
105,3,0.0180054,0.0186157,0.164185,0.0387573,0.0195312,0.0537109,0.0506592,0.527649,-0.0012207,0.12207,-0.0393677,0.017395,0.0268555
105,4,0.0332642,0.010376,0.110168,0.0704956,0.0259399,0.0466919,0.0396729,-2.33246,-0.00183105,0.0515747,-0.0402832,0.0256348,0.0234985
106,0,0.00823975,0.0131226,0.0537109,0.0183105,0.0137329,0.0253296,0.0442505,-1.35101,0.0170898,-3.03162,-0.0561523,0.0161743,0.0170898
106,1,-0.0378418,0.0204468,0.0241089,0.0283813,0.0460815,0.0332642,0.0405884,0.0402832,0.0131226,-2.9837,-0.0473022,-0.000610352,0.0140381
106,2,0.0317383,0.0125122,-0.0109863,0.032959,0.0332642,0.0549316,0.0341797,-2.27203,0.00854492,-2.93335,-0.0320435,0.00823975,0.0247192
106,3,0.00213623,0.0170898,0.00793457,0.0326538,0.0198364,0.0106812,0.0384521,-2.30743,0.0234985,-2.86469,-0.0274658,0.0149536,0.0286865
106,4,0.0241089,-0.0170898,-0.0384521,0.00915527,0.0527954,0.00793457,0.039978,-1.22803,0.0204468,-2.7594,-0.00915527,-0.0201416,0.0262451
107,0,0.0158691,0.0140381,-0.0726318,0.0366211,0.020752,-0.00610352,-0.0201416,-0.974121,0.0323486,3.22693,-0.0177002,0.00305176,-0.0189209
107,1,0.0106812,0.0112915,-0.110168,0.0170898,0.020752,-0.0262451,0.0286865,-1.17279,0.0238037,3.2959,-0.0238037,0.0119019,0.0231934
107,2,0.0161743,0.00946045,-0.109863,0.0405884,0.0238037,0.0186157,0.0299072,-1.68579,0.00518799,3.29468,-0.0112915,-0.0518799,0.0161743
107,3,0.0146484,0.0183105,-0.132751,-0.00213623,0.0219727,0.0335693,0.0439453,-1.23657,0.0405884,3.30261,-0.0213623,0.0088501,0.0131226
107,4,0.0219727,0.0198364,-0.13855,-0.00579834,0.0299072,0.0552368,0.0354004,-1.34216,-0.00701904,3.20007,-0.0149536,-0.00183105,0.0161743
108,0,0.027771,0.00427246,-0.154724,0.0161743,0.0332642,-0.00732422,0.0482178,-1.31439,0.0280762,3.08228,-0.0213623,0.0128174,0.0183105
108,1,0.00976562,0.0320435,-0.167236,0.0137329,0.0323486,0.00366211,0.0408936,-1.17188,0.0286865,2.96326,-0.0210571,0.000915527,0.0112915
108,2,0.0195312,0.0280762,-0.167542,0.00366211,0.027771,0.012207,0.0793457,-0.895996,0.0314331,2.87384,-0.0189209,0.00549316,0.0128174
108,3,0.010376,0.0247192,-0.192261,0.00518799,0.0317383,-0.00183105,0.0210571,-0.653992,0.043335,2.78198,-0.0494385,-0.00305176,0.00488281
108,4,-0.00823975,0.00701904,-0.184021,0.0454712,0.0375366,0,0.0350952,-0.306396,0.0354004,-3.19946,0.000915527,0.0125122,-0.0204468
109,0,0.0204468,0.0152588,-0.198364,0.00579834,0.0234985,0.0167847,0.0210571,-0.444031,0.0341797,-3.18665,-0.000305176,-0.00488281,0.010376
109,1,0.00976562,0.0686646,-0.206299,0.0119019,0.0387573,0.0112915,0.0363159,-0.586548,0.0360107,-3.19214,-0.000610352,0.0180054,-0.00366211
109,2,0.00793457,0.0170898,-0.199585,0.0247192,0.0292969,0.0460815,0.0088501,-0.522766,0.0418091,-3.18085,0.00183105,0.022583,0.0180054
109,3,0.0512695,0.0390625,-0.206909,0.0506592,0.0262451,0.0439453,-0.0195312,-0.500183,0.0234985,3.11798,0.00152588,0.0201416,0.00518799
109,4,0.0186157,0.00549316,-0.187988,0.0143433,0.0338745,0.0088501,0.0119019,-0.450745,0.03479,3.09052,-0.00946045,-0.0131226,0.00579834
110,0,0.0262451,0.0167847,-0.204773,-0.00457764,0.0317383,0.0308228,0.00488281,-0.432129,0.0234985,3.04901,-0.0210571,0.0140381,-0.000610352
110,1,0.0189209,0.022583,-0.206299,-0.0296021,0.0323486,0.0415039,0.0231934,-0.366821,0.0088501,2.94556,-0.00366211,0.0112915,0.0128174
110,2,0.0302124,0.0125122,-0.218201,-0.000610352,0.0320435,0.0158691,0.0695801,-0.291748,0.012207,2.90039,-0.00335693,0.00549316,-0.00244141
110,3,-0.00488281,0.0189209,-0.203552,-0.00793457,0.0158691,0.0195312,0.0408936,-0.257568,0.0238037,2.771,-0.00457764,0.0195312,-0.00579834
110,4,0.0183105,0.0164795,-0.210876,0.0152588,0.0308228,-0.0442505,0.0411987,-0.193481,-0.0515747,2.74323,-0.0161743,0.0204468,-0.00579834
111,0,0.0170898,-0.00305176,-0.201416,0.0167847,-0.00671387,0.0241089,0.0396729,-0.111694,0.0149536,2.67242,-0.0247192,0.0244141,0.00762939
111,1,0.0146484,0.0012207,-0.188904,0.000610352,0.0332642,0.015564,0.0369263,-0.133667,0.0106812,2.53815,-0.0234985,0.0213623,0.0250244
111,2,0.0115967,0.0213623,-0.19165,0.00457764,0.050354,0.0289917,0.0283813,-0.135498,0.00640869,2.42279,-0.0128174,0.00610352,0.0164795
111,3,0.0088501,-0.0561523,-0.189209,0.00946045,0.0283813,0.017395,0.0274658,-0.128784,0.0128174,2.33765,-0.00610352,0.0170898,0.0164795
111,4,0.0146484,0.00610352,-0.183716,0.017395,0.027771,-0.00213623,0.00823975,-0.110779,-0.000915527,1.03912,-0.0265503,0.0271606,0.0375366
112,0,0.0140381,0.00762939,-0.179443,0.0131226,0.0341797,0.0234985,0.0369263,-0.115356,0.00976562,2.25006,-0.0100708,0.0616455,0.0186157
112,1,-0.000305176,0.00762939,-0.175781,0.00335693,0.0228882,0.0158691,0.0320435,-0.0982666,0.039978,2.17041,-0.0299072,0.0100708,0.017395
112,2,0.00793457,0.0201416,-0.166016,0.0213623,0.0949097,0.0109863,0.0228882,-0.169067,0.0140381,2.08649,-0.020752,0.00915527,0.0402832
112,3,0.0180054,-0.0131226,-0.184937,-0.00335693,0.0244141,0.00732422,0.00701904,0.153503,0.0289917,1.98547,-0.0192261,0.00579834,0.00671387
112,4,-0.038147,0.0186157,-0.201111,0.0149536,0.0192261,-0.00579834,0.0222778,0.13855,0.0308228,1.95404,-0.00671387,0.0128174,0.0180054
113,0,0.0280762,0.0180054,-0.206299,-0.0012207,0.0161743,-0.000610352,0.0317383,0.191345,0.0302124,1.875,-0.0335693,0.0161743,-0.00518799
113,1,0.0158691,0.0396729,-0.193176,0.00823975,0.0161743,-0.000305176,0.0222778,0.205383,0.0317383,1.81946,-0.0253296,0.0167847,0.00610352
113,2,0.0289917,-0.00396729,-0.174561,-0.000610352,0.0201416,0.012207,0.00305176,0.367737,0.0363159,1.76666,-0.0238037,0.0128174,0.0088501
113,3,0.0164795,0.0271606,-0.163879,0.00183105,0.0311279,0.0308228,0.0170898,0.368347,0.045166,1.69678,-0.0131226,0.0183105,0.0158691
113,4,0.0259399,0.00396729,-0.158081,0.00762939,0.0308228,0.0323486,0.0308228,0.242615,0.022583,1.63116,-0.0247192,0.0280762,0.015564
114,0,0.0146484,0.0622559,-0.181274,-0.0140381,-0.0350952,0.000610352,0.0531006,0.228271,0.0140381,1.62506,-0.0256348,0.0366211,0.017395
114,1,0.0134277,0.0125122,-0.148315,-0.00244141,0.0161743,0.0289917,0.0265503,0.224304,0.0143433,1.55701,-0.0271606,0.0244141,0.0186157
114,2,0.00701904,0.00305176,-0.149231,0.0585938,0.0231934,0.00793457,0.0302124,0.447998,0.0234985,1.53442,-0.0454712,0.010376,0.0317383
114,3,0.0192261,0.027771,-0.150146,0.0106812,0.0177002,0.0219727,0.0244141,0.410767,0.0247192,1.49963,-0.0323486,0.0140381,0.0204468
114,4,0.0192261,0.0384521,-0.134583,0.00579834,0.0323486,0.0109863,0.0280762,0.478516,-0.0292969,1.48468,-0.0234985,-0.0228882,0.0201416
115,0,-0.010376,0.0106812,-0.148926,0.00976562,0.0149536,0.0387573,0.0274658,0.330811,0.0302124,1.43982,-0.0271606,0.0753784,0.0170898
115,1,0.0137329,0.0228882,-0.130005,0.0152588,-0.00946045,0.0466919,0.00366211,0.343323,0.0286865,1.42548,-0.0296021,0.0268555,0.0335693
115,2,0.010376,0.0180054,-0.133057,0.0189209,0.00976562,0,0.0125122,0.468445,-0.0247192,1.20361,-0.0387573,0.0189209,0.00457764
115,3,0.0485229,0.00762939,-0.139771,-0.0524902,0.0256348,-0.045166,0.0189209,0.264282,0.0250244,1.21826,-0.00915527,0.0244141,0.0341797
115,4,0.0189209,0.0170898,-0.139465,0.00823975,0.0234985,-0.0845337,0.0253296,0.352173,0.015564,1.12488,-0.0408936,0.0213623,0.0112915
116,0,0.0192261,0.00793457,-0.120239,-0.00274658,0.0228882,-0.0634766,0.0164795,0.236206,0.0967407,1.06964,-0.0305176,0.00762939,0.00854492
116,1,0.00976562,-0.0546265,-0.119324,-0.0219727,0.0183105,-0.039978,0.0350952,0.213928,0.0332642,1.05804,-0.0549316,0.0125122,0.0167847
116,2,0.0164795,-0.0231934,-0.122375,-0.00518799,0.0640869,-0.0299072,0.00549316,0.293579,0.0323486,0.987244,-0.0314331,0.0332642,0.0143433
116,3,0.00671387,0.0305176,-0.114746,-0.0268555,0.0250244,-0.0253296,0.015564,0.135193,0.0424194,0.94574,-0.0372314,0.0219727,0.039978
116,4,0.0216675,0.0201416,-0.126648,0.010376,0.0357056,-0.0131226,-0.00732422,0.145569,0.0378418,0.955505,-0.0335693,0.0210571,0.0314331
117,0,0.0164795,0.0128174,-0.108643,-0.0708008,0.0183105,0.0088501,0.0469971,0.299377,0.0457764,0.870056,-0.0238037,0.00244141,0.0195312
117,1,0.0119019,0.0131226,-0.101013,-0.0247192,0.0241089,0.0521851,0.0302124,0.176086,0.0180054,0.840149,-0.0323486,0.0476074,0.0256348
117,2,-0.0354004,0.0100708,-0.10498,0.0326538,0.0241089,0.0509644,0.0234985,0.160828,0.0341797,0.805969,-0.0497437,0.0198364,0.017395
117,3,0.0106812,0.0204468,-0.102234,0.00244141,0.0213623,0.106812,0.0265503,0.241089,0.0466919,0.768433,0.0115967,0.0308228,0.0167847
117,4,0.0213623,0.0183105,-0.0726318,0.0286865,0.0128174,0.140991,0.0299072,0.177002,0.00366211,0.721436,-0.0247192,0.0650024,-0.00305176
118,0,0.0228882,0.00518799,-0.125732,0.0256348,0.00946045,0.185852,0.022583,0.166321,0.0265503,0.70282,-0.0143433,0.0143433,0.000610352
118,1,0.010376,0.0231934,-0.0909424,0.0402832,-0.00640869,0.151672,0.0280762,0.267639,0.0396729,0.678101,-0.0195312,0.017395,0.0201416
118,2,0.0189209,0.00732422,-0.109253,0.0515747,0.000610352,0.13092,0.0201416,0.218201,0.0393677,0.617981,-0.0219727,0.03479,0.0457764
118,3,0.0149536,0.0125122,-0.0708008,0.0604248,-0.0149536,0.0897217,-0.0408936,0.186462,0.00946045,0.603027,-0.0332642,0.0134277,0.0231934
118,4,0.0201416,0.0177002,-0.131531,0.0656128,-0.022583,0.00244141,0.0210571,0.192871,0.0518799,0.585327,-0.032959,0.0100708,0.0164795
119,0,0.022583,0.0268555,-0.183105,0.0497437,-0.0561523,0.0390625,0.00915527,0.354614,0.0195312,0.436401,-0.0344849,0.0341797,0.0354004
119,1,0.0219727,-0.0106812,-0.163574,0.0546265,-0.03479,0.0463867,0.022583,0.274963,0.0201416,0.195007,-0.0323486,0.0302124,0.020752
119,2,0.0448608,0.00518799,-0.133667,0.0497437,0.0152588,0.0335693,0.0128174,0.33783,0.0204468,-1.18378,0.00457764,0.0234985,0.0219727
119,3,0.027771,0.0128174,-0.109558,0.0521851,-0.00183105,0.03479,0.0161743,0.299683,0.0527954,-0.120239,-0.0238037,0.0137329,0.0231934
119,4,0.0320435,0.00244141,-0.159302,0.0500488,-0.00701904,-0.0137329,0.00579834,0.29541,0.0241089,-0.168152,-0.0512695,0.0152588,0.0222778
120,0,0.0772095,0.0222778,-0.143433,0.0540161,0.00915527,0.00396729,0.0195312,0.289307,0.0488281,-0.33783,-0.017395,0.0250244,0.020752
120,1,0.0283813,-0.00671387,-0.13031,0.0485229,-0.00396729,0.00793457,0.0262451,0.271606,0.062561,-0.476074,-0.0500488,0.0595093,0.00610352
120,2,0.0186157,0.0305176,-0.0897217,0.0341797,0.0167847,-0.0106812,0.0213623,0.253906,0.0683594,-0.605774,-0.0253296,0.00640869,0.0274658
120,3,0.0222778,0.0167847,-0.0741577,0.0369263,-0.00579834,0.0088501,0.0271606,0.263977,0.0631714,-0.736694,-0.0357056,0.0164795,0.0262451
120,4,0.0253296,0.0338745,-0.0442505,0.0360107,0.0115967,0.00366211,0.00793457,0.270081,0.0891113,-0.916138,-0.0302124,0.0238037,-0.027771
121,0,0.0186157,0.017395,0.0253296,0.0296021,0.017395,0.0146484,0.0186157,0.252991,0.0619507,-0.958862,-0.0585938,0.022583,0.0823975
121,1,0.0247192,0.0378418,0.0430298,0.0219727,0.0106812,0.00152588,0.0274658,0.185852,0.072937,-1.10535,-0.0350952,0.0134277,0.000915527
121,2,0.0296021,0.062561,-0.085144,0.0134277,0.0088501,-0.020752,0.0167847,0.212708,0.0506592,-1.12976,-0.039978,0.0286865,0.0296021
121,3,0.017395,0.0183105,-0.184937,0.0216675,0.0201416,-0.00305176,0.010376,0.162964,0.0585938,-1.21002,-0.0387573,0.0311279,0.00976562
121,4,0.00671387,-0.000915527,-0.0802612,0.0149536,0.0134277,0.00915527,0.0311279,0.108337,0.0842285,-1.2558,-0.0335693,0.0201416,0.0247192
122,0,0.0350952,0.0335693,0.0238037,-0.00396729,0.0158691,0.00793457,0.0265503,0.149841,0.0759888,-1.3266,-0.0378418,0.0115967,0.0296021
122,1,0.043335,0.0204468,0.055542,-0.0161743,0.0183105,0.0177002,0.0213623,0.264282,0.0933838,-1.36658,-0.0302124,0.0320435,0.0253296
122,2,0.0204468,0.00396729,-0.0942993,0.00976562,-0.00274658,-0.00732422,0.012207,0.179443,0.0622559,-1.44592,-0.0262451,0.0283813,0.0750732
122,3,0.0320435,0.0137329,-0.189819,-0.00274658,0.0140381,0.0497437,0.0302124,0.405884,0.020752,-1.43707,-0.0192261,0.0228882,0.0186157
122,4,0.0280762,0.00762939,-0.160217,-0.0149536,0.0131226,0.0195312,0.00701904,1.40594,0.0402832,-1.45874,-0.0161743,0.0192261,0.0457764
123,0,0.0317383,-0.0473022,-0.223083,0.00457764,0.0262451,0.0369263,0.0201416,0.843811,0.0445557,-1.4682,-0.0128174,0.022583,0.0186157
123,1,0.0106812,0.0012207,-0.289001,0.0112915,0.043335,0.0088501,0.0125122,0.242004,0.0396729,-1.51398,-0.0100708,0.0219727,-0.000610352
123,2,0.0216675,0.0012207,-0.136719,0.00305176,0.00976562,0.0134277,-0.00274658,0.278625,0.0445557,-1.50177,-0.039978,0.0143433,0.0106812
123,3,0.038147,0.0100708,-0.186157,0.0128174,0.0180054,0.00457764,0.0320435,-0.14801,0.0299072,-1.50879,-0.00244141,0.0524902,0.00183105
123,4,0.0323486,0.0415039,-0.0939941,0.0201416,-0.0170898,0.0189209,0.0143433,-0.15564,0.0274658,-1.52374,-0.00213623,0.0283813,0.0128174
124,0,0.0271606,0.062561,0.0668335,0.0289917,0.00640869,0.00457764,0.0338745,-0.0292969,0.0241089,-1.52374,-0.0109863,0.0201416,-0.00701904
124,1,0.0402832,0.0662231,0.231934,0.0167847,0.015564,0.0210571,0.00762939,0.116272,0.0161743,-1.56525,-0.00701904,0.0259399,0.0109863
124,2,0.0436401,0.0921631,0.195312,0.00732422,0.00701904,0.00274658,0.0100708,-0.144653,0.0302124,-1.49689,0.00671387,0.0527954,0.0289917
124,3,0.0930786,0.0213623,0.072937,0.0204468,0.0100708,0,-0.00488281,0.0137329,0.0234985,-1.50757,-0.00274658,0.0299072,0.0305176
124,4,0.0326538,-0.00427246,0.134583,0.0143433,0.0170898,-0.000915527,0.00213623,0.0253296,0.0466919,-1.53229,-0.00579834,0.0244141,0.0012207
125,0,0.0323486,-0.00671387,0.0387573,0.0241089,0.0219727,-0.00762939,0.0296021,0.00854492,0.0341797,-1.50085,-0.0357056,0.0292969,0.0344849
125,1,0.0323486,-0.0479126,-0.0973511,0.0167847,0.0146484,-0.0326538,0.032959,0.0778198,0.0256348,-1.4859,-0.0271606,0.0265503,-0.00488281
125,2,0.0305176,-0.0354004,-0.0149536,0.0198364,0.0259399,0.00183105,0.0115967,0.0646973,0.0396729,-1.47614,-0.0323486,0.0170898,0.0183105
125,3,0.0363159,0.0222778,-0.055542,0.00579834,0.0100708,-0.00579834,0.0180054,-0.0494385,0.0189209,-1.43951,-0.0473022,0.0271606,0.0186157
125,4,0.0344849,0.0720215,0.0299072,0.0219727,0.0369263,0.0283813,0.022583,0.0390625,-0.0274658,-1.40747,-0.020752,0.0286865,0.0357056
126,0,0.03479,0.0585938,-0.0219727,0.0158691,-0.00274658,-0.00549316,0.0143433,-0.177917,0.0302124,-1.4209,-0.0393677,0.0143433,0.0299072
126,1,0.0335693,0.0708008,-0.0238037,0.00946045,0.0765991,0.00671387,0.0131226,-0.0131226,0.0314331,-1.87561,-0.032959,0.0378418,0.0216675
126,2,0.0384521,0.0683594,-0.0592041,0.00671387,0.0167847,0.0201416,0.0134277,0.0927734,0.0302124,-1.36353,-0.0311279,0.0372314,0.0344849
126,3,0.0314331,0.0439453,-0.0247192,0.00610352,0.0274658,0,0.0283813,0.0860596,0.0308228,-1.34247,-0.045166,0.0415039,0.0131226
126,4,0.0411987,0.067749,0.0195312,0.0177002,0.0161743,0.0274658,0.0332642,0.050354,0.0375366,-1.31287,-0.0506592,0.0219727,0.0415039
127,0,0.0296021,0.0531006,0.0662231,0.0177002,0.0247192,-0.00152588,0.0265503,0.0686646,0.0314331,-1.26862,-0.0439453,0.0128174,0.065918
127,1,0.0305176,0.0411987,0.0384521,0.0128174,0.00640869,0.0112915,0.012207,-0.00213623,0.03479,-1.25153,-0.0363159,0.0265503,0.0286865
127,2,0.0442505,0.0561523,0.0585938,0.0213623,0.0201416,0.0100708,0.0308228,0.0787354,0.0314331,-1.58325,-0.0283813,0.0320435,0.0384521
127,3,-0.0311279,0.0384521,0.100708,0.0195312,0.00854492,-0.00152588,0.012207,0.0805664,0.0427246,-1.84906,-0.0164795,0.0247192,0.0311279
127,4,0.0540161,0.0396729,0.216064,0.0268555,0.0369263,0.00915527,0.022583,0.0366211,0.0259399,-1.07941,-0.0323486,0.0354004,0.0302124
128,0,0.0384521,0.03479,0.267944,0.00457764,0.0268555,-0.022583,0.0222778,0.100098,0.0372314,-2.30408,-0.00183105,0.0283813,0.0268555
128,1,0.0439453,0.0201416,0.250549,0.0152588,0.00976562,-0.0534058,0.0106812,0.0762939,0.0604248,-2.63519,-0.0357056,0.0457764,0.0250244
128,2,0.0454712,0.0357056,0.234375,0.0183105,0.0115967,-0.0317383,0.0201416,0.0866699,0.0421143,-2.30652,-0.0302124,0.022583,0.0335693
128,3,0.0439453,0.0311279,0.222168,0.0106812,-0.0265503,-0.0109863,0.0109863,0.0674438,0.0527954,-1.21185,-0.0369263,0.0372314,0.0256348
128,4,0.0354004,0.0488281,0.188599,0.0112915,0.0268555,-0.0012207,0.0756836,0.0741577,0.0482178,-0.572815,-0.0350952,0.00183105,0.0305176
129,0,0.0302124,0.03479,0.167847,0.00793457,0.0186157,-0.00701904,0.0262451,0.0671387,0.0387573,-0.360718,-0.027771,0.0128174,0.0180054
129,1,0.0485229,0.0311279,0.169373,-0.00305176,0.0283813,-0.0119019,0.0283813,0.0561523,0.0872803,-0.361633,-0.0402832,0.0457764,0.020752
129,2,0.0369263,0.0317383,0.110779,0.00274658,0.0234985,0.0360107,0.0247192,0.03479,0.0759888,-0.398865,-0.0357056,0.0439453,0.0177002
129,3,0.0421143,0.0317383,0.111694,-0.00762939,0.0213623,0.0537109,0.0265503,0.0302124,-0.0115967,-0.423584,-0.0271606,0.0320435,0.0320435
129,4,0.0350952,0.0317383,0.0772095,0.00274658,0.0326538,-0.00518799,0.022583,0.038147,0.0299072,-0.7547,-0.0421143,0.020752,0.032959
130,0,0.0427246,0.0268555,0.0891113,-0.0170898,0.0109863,0.00213623,0.0311279,0.0222778,0.0543213,-0.84198,-0.0387573,0.0479126,0.0265503
130,1,0.027771,0.0463867,0.0946045,0.00427246,-0.00335693,0.0308228,0.000915527,0.0387573,0.0384521,-0.683899,-0.0418091,0.0183105,0.0308228
130,2,0.055542,0.0283813,0.111084,-0.0112915,0.00640869,0.0387573,0.0167847,0.00610352,0.0357056,-3.16833,-0.0650024,0.0177002,0.045166
130,3,-0.0119019,0.0286865,0.105286,0.0238037,0.0183105,0.0372314,0.0250244,0.0390625,0.0311279,-3.14301,-0.0213623,0.0442505,0.0354004
130,4,0.0228882,0.0259399,-0.038147,0.0210571,0.038147,0.0735474,0.0442505,0.032959,0.0161743,-3.07709,-0.0286865,0.0509644,0.027771
131,0,0.0283813,0.00762939,-0.0476074,0.0183105,0.0326538,0.0512695,0.0256348,0.0360107,0.015564,-3.01025,-0.0366211,0.0152588,0.0354004
131,1,0.0210571,0.00915527,-0.190125,0.0231934,0.0323486,0.0494385,0.0195312,0.0320435,0.00305176,-2.94006,-0.0485229,0.0296021,0.0616455
131,2,-0.0152588,0.0125122,-0.140381,0.0289917,0.020752,0.0582886,0.0219727,0.0265503,0.020752,-2.87933,-0.00549316,0.0152588,0.0350952
131,3,0.0320435,0.0152588,-0.119629,0.0271606,0.0134277,0.0265503,0.0259399,0.00671387,0.0402832,-2.81311,-0.0213623,0.0128174,0.0241089
131,4,0.0354004,0.0311279,-0.0802612,0.0390625,0.0201416,0.0787354,-0.0143433,0.000610352,0.00335693,-2.77679,-0.0402832,0.022583,0.0357056
132,0,0.0985718,0.0442505,-0.0811768,0.0592041,0.0180054,0.106506,0.0299072,-0.00213623,-0.000915527,-2.67853,-0.0393677,0.0192261,0.0366211
132,1,-0.00640869,0.0454712,-0.0201416,0.0299072,-0.00305176,0.083313,-0.0256348,-0.0238037,-0.00610352,-2.6416,-0.03479,0.0369263,0.0231934
132,2,0.0430298,0.0262451,-0.0259399,0.0634766,0.0125122,0.0765991,0.0384521,-0.0183105,0.00518799,-2.55768,-0.0198364,0.0479126,0.0326538
132,3,0.027771,0.00946045,0.0485229,0.0650024,0.0012207,0.0942993,0.00518799,-0.0518799,0.00946045,-2.52502,-0.0238037,0.0131226,0.0344849
132,4,0.0390625,0.0299072,-0.032959,0.0582886,0.0448608,0.0552368,0.020752,-0.0592041,0.000610352,-2.45819,0.0115967,0.0393677,0.0204468
133,0,0.0424194,0.0350952,-0.0543213,0.0643921,0.00274658,0.06073,0.0180054,-0.020752,0.0158691,-2.39685,0.000610352,0.03479,0.0332642
133,1,0.0372314,0.0189209,-0.00305176,0.0546265,0.0268555,0.0558472,0.0228882,-0.00671387,-0.0283813,-2.41669,-0.0137329,0.0442505,0.0289917
133,2,0.0302124,0.0189209,-0.0509644,0.0613403,0.00854492,0.0552368,0.0234985,-0.012207,-0.00823975,-0.703735,-0.00976562,0.0402832,0.0253296
133,3,0.0335693,0.00549316,-0.0778198,0.0588989,0.0131226,0.0405884,0.0180054,-0.032959,0.0393677,3.29498,-0.012207,0.0424194,0.0177002
133,4,0.0360107,-0.00640869,-0.0680542,0.0497437,0.00854492,0.00213623,0.022583,-0.0112915,0.0418091,3.3017,-0.010376,0.00549316,0.0314331
134,0,0.0430298,0.00732422,-0.0131226,0.0494385,0.0164795,0.0524902,0.0204468,-0.0411987,0.0140381,-2.43805,-0.00793457,-0.0253296,0.0415039
134,1,0.0323486,-0.0170898,-0.0558472,0.0595093,-0.0408936,0.00854492,0.0219727,-0.0686646,0.0186157,-2.38342,-0.0106812,0.0320435,0.0195312
134,2,0.0265503,0.039978,-0.161133,0.0436401,0.0280762,0.00244141,-0.0271606,-0.000915527,0.010376,-2.33978,-0.022583,0.0253296,0.0305176
134,3,0.0518799,0.0436401,-0.145874,0.0314331,-0.000915527,-0.0283813,0.0158691,0.0231934,0.0247192,-2.34528,-0.00640869,0.0418091,0.0402832
134,4,0.0390625,0.0238037,-0.0961304,0.0119019,0.0250244,-0.022583,0.0109863,0.0167847,0.0350952,3.28857,-0.0204468,0.0149536,0.0454712
135,0,0.032959,0.0375366,-0.184326,0.0250244,0.0372314,-0.0308228,0.0112915,-0.00793457,0.00793457,3.29315,-0.0244141,0.039978,0.0268555
135,1,0.0299072,-0.0195312,-0.189819,0.0268555,-0.015564,-0.0668335,0.0186157,0.0418091,0.0219727,3.30048,-0.0271606,0.0204468,0.0354004
135,2,0.0354004,0.0567627,-0.107727,0.0152588,0.0372314,-0.0518799,0.00213623,0.03479,0.0427246,-2.55066,-0.0262451,0.020752,0.0299072
135,3,0.0164795,0.0857544,0.0897217,0.00488281,0.0198364,-0.0671387,0.0262451,0.0210571,0.0354004,3.35449,-0.0256348,0.0396729,-0.0213623
135,4,0.0332642,0.0646973,-0.0958252,0.0115967,0.0164795,-0.06073,0.00946045,-0.00671387,0.0375366,-2.64618,-0.020752,0.0485229,0.0213623
136,0,0.0146484,0.032959,-0.11322,0.017395,0.03479,-0.0817871,-0.00183105,0.0790405,0.045166,-1.84875,-0.0393677,0.0341797,0.0448608
136,1,0.0488281,0.0442505,-0.0720215,0.00610352,0.0408936,-0.0567627,0.0128174,-0.0897217,0.0598145,-2.52411,-0.0302124,0.0527954,0.0405884
136,2,0.0296021,0.0262451,-0.0689697,-0.00854492,0.0396729,-0.0695801,0.00793457,-0.0891113,0.0366211,-2.47406,-0.0427246,0.0341797,0.0320435
136,3,0.0445557,0.038147,-0.107422,-0.0216675,0.0500488,-0.106812,0.00793457,-0.0915527,0.0512695,-2.40906,-0.0534058,0.0524902,0.0341797
136,4,0.0274658,0.0296021,-0.039978,-0.00488281,0.0402832,-0.0537109,0.0115967,-0.0875854,0.0393677,-2.34497,-0.043335,0.0759888,0.0213623
137,0,0.0341797,0.0198364,-0.0665283,0.00732422,0.00518799,-0.0622559,0.0161743,-0.0741577,0.0350952,-2.30896,-0.0296021,0.0292969,0.0344849
137,1,0.038147,0.032959,-0.131226,0.0112915,0.0326538,-0.0997925,-0.00183105,-0.0765991,0.0424194,-2.25677,-0.0387573,0.0253296,0.0305176
137,2,0.0314331,0.0393677,-0.0543213,0.000915527,0.0390625,-0.0616455,0.0088501,-0.072937,0.0341797,-2.2052,-0.0402832,0.0311279,0.038147
137,3,0.0283813,-0.0195312,-0.0378418,0.0137329,-0.00549316,-0.0469971,0.017395,-0.120544,0.043335,-2.16248,-0.0308228,0.0360107,0.0283813
137,4,0.022583,0.0234985,0.038147,-0.0378418,0.0439453,0.0790405,0.0189209,0.118103,0.0759888,-2.10846,-0.0460815,0.0344849,0.0195312
138,0,0.0149536,-0.00671387,0.0222778,-0.0216675,0.0473022,0.0918579,0.0216675,0.19104,0.0012207,-2.07184,-0.0320435,0.0241089,0.0500488
138,1,0.0192261,0.0204468,0.193176,0.00213623,0.0393677,0.102234,0.0177002,0.148621,-0.0170898,-2.03339,-0.0262451,0.0424194,0.0292969
138,2,0.0158691,0.0259399,0.178833,0.00488281,0.0186157,0.147095,0.0137329,0.105286,-0.00274658,-1.98029,-0.0128174,0.0146484,0.0231934
138,3,0.00946045,0.0256348,0.450134,0.00762939,0.0177002,0.171509,0.0195312,-0.0891113,0.00274658,-1.96503,-0.0405884,0.0222778,0.0305176
138,4,0.0601196,0.0350952,0.289612,0.022583,-0.00427246,0.174866,0.0305176,-0.161438,-0.00305176,-1.90948,-0.0350952,0.017395,0.0274658
139,0,0.00915527,0,0.361023,0.0552368,0.00701904,0.140381,0.022583,-0.0759888,0.0415039,-1.83136,-0.0311279,0.020752,0.0158691
139,1,0.0149536,-0.0119019,0.0958252,0.0653076,0.0012207,0.13855,0.0143433,-0.0360107,-0.0149536,-1.77399,-0.0152588,0.0265503,0.0228882
139,2,0.0143433,-0.0170898,0.0860596,0.065918,-0.0204468,0.140076,0.0177002,-0.0204468,-0.0167847,-1.70593,-0.012207,0.0292969,0.0201416
139,3,0.0323486,-0.0158691,0.142517,0.098877,-0.00396729,0.116577,0.012207,0.100098,-0.0234985,-1.64307,0.00549316,0.0247192,0.017395
139,4,0.0134277,0.0149536,0.194397,0.114746,-0.022583,0.0933838,0.00854492,-0.0219727,-0.0189209,-1.58752,0.000610352,0.0238037,0.0192261
140,0,0.0189209,0.0253296,0.242004,0.112,-0.0204468,0.0857544,0.0241089,-0.000610352,-0.0137329,-1.51123,-0.00213623,0.017395,0.0283813
140,1,0.0183105,0.0286865,0.400696,0.114441,-0.00610352,0.0363159,0.00366211,0.0595093,-0.00366211,-1.4563,-0.0170898,0.0186157,0.0900269
140,2,0.0231934,0.0497437,0.411682,0.0863647,-0.0012207,0.0228882,0.000610352,0.121155,-0.0189209,-1.4209,-0.00183105,0.032959,0.0308228
140,3,0.0134277,0.0473022,0.435791,0.12207,-0.00640869,-0.0402832,0.0326538,-0.0924683,-0.0231934,-1.35284,-0.00946045,0.0442505,0.0228882
140,4,0.0198364,0.0372314,0.377197,0.11261,0.000610352,0,0.0265503,0.0341797,-0.00946045,-1.29639,-0.012207,0.0289917,0.0296021
141,0,0.0201416,-0.000305176,0.371094,0.102539,-0.00915527,0.00640869,0.010376,-0.0802612,-0.00915527,-1.23718,-0.00518799,0.0158691,0.0259399
141,1,0.0137329,0.0469971,0.367432,0.109558,-0.0350952,0.0112915,0.0213623,-0.114746,-0.00823975,-1.19019,-0.0332642,0.0283813,0.020752
141,2,0.0170898,0.0405884,0.336609,0.108948,-0.00549316,0.0140381,0.0222778,-0.0314331,-0.0320435,-1.14777,-0.0177002,-0.0161743,0.0201416
141,3,0.0192261,0.0372314,0.341187,0.0891113,0.00823975,0.00366211,0.0219727,-0.0439453,0.00915527,-1.09985,-0.00946045,0.0314331,0.00549316
141,4,0.0259399,0.0552368,0.331726,0.0982666,-0.0106812,0.00701904,0.0308228,-0.0366211,0.000305176,-1.05377,-0.0119019,0.0119019,0.0262451
142,0,0.020752,0.0256348,0.0772095,0.0247192,0.0350952,-0.00396729,0.017395,-0.0390625,0.0317383,-1.01746,-0.0344849,0.0643921,0.00244141
142,1,0.0259399,0.0750732,0.012207,0.0296021,0.00793457,-0.00701904,0.0384521,-0.0915527,0.0167847,-1.00159,-0.0128174,0.0305176,0.0186157
142,2,0.0369263,0.0817871,-0.0012207,0.00274658,0.0518799,-0.017395,0.0234985,0.03479,0.0119019,-0.922852,-0.00762939,0.0317383,0.0195312
142,3,-0.0088501,0.050354,-0.0134277,-0.0561523,0.0488281,-0.0222778,-0.0271606,0.0415039,0.0195312,-0.86792,-0.0292969,0.027771,0.0180054
142,4,0.00671387,0.0146484,0.0311279,-0.000305176,0.0372314,-0.0125122,0.0146484,0.0723267,0.0271606,-0.820007,-0.0222778,0.0198364,0.00823975
143,0,0.0100708,-0.00823975,0.0115967,0.0119019,0.0469971,-0.0164795,0.0244141,0.0891113,-0.00183105,-0.863342,-0.00793457,0.0402832,0.0222778
143,1,0.0250244,0.0250244,0.0668335,-0.0109863,0.0460815,0.0012207,0.0259399,0.149231,0.0448608,-0.773315,-0.0268555,0.027771,0.022583
143,2,0.0344849,0.0198364,0.0726318,-0.00488281,0.0497437,0.00671387,-0.0430298,0.0854492,0.0308228,-0.670776,-0.0305176,0.0152588,0.00579834
143,3,0.0204468,0.00549316,-0.0125122,-0.00610352,0.0515747,0.012207,0.0213623,-0.0582886,0.0167847,-0.695496,-0.0424194,0.0152588,0.0213623
143,4,0.022583,0.0164795,0.0259399,0.0100708,0.0546265,0.0140381,0.00823975,0.118713,0.043335,-0.665283,-0.0442505,0.0714111,0.0311279
144,0,0.0134277,0.017395,0.0515747,-0.00488281,0.038147,0.0357056,0.0256348,0.0332642,0.0265503,-0.603638,-0.0332642,-0.00305176,0.0247192
144,1,-0.00213623,0.0119019,0.0634766,-0.0180054,0.0390625,0.0469971,0.0280762,-0.115967,0.0408936,-0.59967,-0.032959,0.0125122,0.0302124
144,2,0.0393677,0.00427246,-0.0308228,0.0158691,0.0323486,0.0491333,0.0186157,-0.0848389,0.0241089,-0.544434,-0.0216675,0.0244141,0.043335
144,3,0.0424194,0.0189209,0.0704956,0.0146484,0.0411987,0.0274658,0.0592041,-0.0836182,0.0189209,3.27301,-0.0344849,0.0320435,0.0234985
144,4,0.020752,0.0201416,0.0012207,0.0140381,0.0463867,0.0247192,0.0289917,-0.0637817,0.0201416,-0.103149,-0.0222778,0.00335693,0.03479
145,0,0.0164795,-0.00335693,-0.0415039,0.00671387,0.0341797,0.0210571,0.0189209,0.19165,0.0158691,2.33093,-0.0268555,0.0180054,0.0256348
145,1,0.0137329,0.0210571,-0.0421143,0.0216675,0.0186157,0.0238037,0.0213623,0.0631714,0.0167847,3.28552,-0.0387573,0.0213623,0.0183105
145,2,0.0192261,0.0125122,0.0701904,0.0088501,0.0332642,0.0177002,0.020752,-0.00854492,0.0177002,3.30536,-0.0482178,0.0161743,0.039978
145,3,0.0344849,-0.0344849,0.0778198,0.0476074,0.0363159,0.010376,0.0271606,0.032959,0.0231934,-1.06415,-0.0372314,0.00488281,0.0369263
145,4,0.0115967,0.017395,0.124817,0.0152588,0.0234985,0.0198364,0.00976562,0.043335,0.0177002,-0.998535,-0.0234985,0.032959,0.0177002
146,0,-0.0100708,0.0204468,0.0363159,0.0292969,0.0274658,0.0137329,0.0363159,0.123596,0.0292969,-0.967407,-0.0268555,0.0180054,0.0372314
146,1,0,0.0408936,-0.0857544,0.00946045,0.0396729,0.0137329,0.0375366,0.0210571,0.0088501,-0.913086,-0.0283813,0.00793457,0.0247192
146,2,0.0198364,0.0195312,0.11261,0.00274658,0.0405884,-0.00305176,0.020752,0.067749,0.0183105,-0.884094,-0.043335,0.0201416,0.0265503
146,3,0.0744629,0.0131226,-0.0588989,0.072937,0.0418091,-0.0271606,0.0457764,0.022583,0.0314331,-0.776062,-0.00579834,0.015564,0.0326538
146,4,0.00946045,0.0201416,-0.103455,0.0161743,0.0421143,-0.0576782,0.010376,-0.0289917,0.0518799,-0.778198,-0.0131226,0.0250244,0.0646973
147,0,0.012207,0.0134277,-0.00305176,-0.00183105,0.0323486,-0.108948,0.020752,-0.0286865,0.0515747,-0.732727,-0.00946045,0.0463867,-0.0140381
147,1,0.00335693,0.00671387,-0.0134277,0.00518799,0.0387573,-0.072937,0.00518799,0.0262451,0.0500488,-0.744629,-0.0189209,0.0100708,-0.0140381
147,2,0.0198364,0.0088501,0.0158691,0.000915527,0.0393677,-0.06073,0.020752,0.0942993,0.0436401,-0.648193,-0.00701904,0.0241089,-0.0161743
147,3,0.00762939,0.00946045,0.00305176,-0.0112915,0.0430298,-0.0701904,0.0250244,0.0253296,0.0631714,-0.638428,-0.0289917,0.0436401,0.0317383
147,4,0.0485229,-0.00579834,-0.0494385,-0.00915527,0.0317383,-0.0494385,0.00579834,0.0439453,0.06073,-0.596313,-0.015564,0.0201416,0.0350952
148,0,0.0198364,-0.050354,-0.0183105,0.00152588,0.045166,-0.0134277,0.0201416,0.12207,0.0604248,-0.550537,-0.0167847,0.0296021,0.00610352
148,1,0.0106812,-0.0521851,0.0177002,-0.010376,0.0357056,0.0219727,0.0219727,0.152893,0.0378418,-0.529175,-0.000305176,0.0268555,0.0152588
148,2,-0.0189209,-0.0415039,0.127869,0.017395,0.0512695,0.057373,0.0170898,0.102539,0.0326538,-0.490112,-0.015564,0.0119019,0.0320435
148,3,0.00701904,-0.00488281,0.129395,-0.00457764,0.043335,0.133362,0.032959,0.116272,-0.0311279,-0.480957,-0.0167847,0.0204468,0.0012207
148,4,0.0357056,0.0494385,0.0686646,0.0286865,0.0466919,0.157166,0.0396729,-0.055542,0.0137329,-0.462646,-0.000305176,0.0244141,0.0613403
149,0,0.0238037,0.0909424,0.0283813,0.00183105,0.0326538,0.196228,0.0189209,-0.0180054,0.0088501,-0.414734,-0.0152588,0.0326538,0.0115967
149,1,-0.0286865,0.0302124,0.0146484,-0.00732422,0.0262451,0.22583,0.00305176,-0.0131226,-0.0134277,-0.352478,0.0283813,0.00976562,0.0177002
149,2,0.0274658,0.0265503,0.0759888,0.0527954,-0.0137329,0.202332,0.0180054,-0.010376,-0.0244141,-0.361633,-0.0213623,0.0296021,0.0170898
149,3,0.0311279,0.03479,-0.0213623,0.06073,0.0158691,0.184326,0.0177002,-0.0366211,-0.0292969,-0.329285,-0.00152588,0.0280762,0.0314331
149,4,0.0274658,0.071106,-0.0088501,0.0601196,0.00854492,0.1474,0.0292969,-0.0143433,-0.0378418,-0.315857,-0.0137329,-0.00305176,0.0296021
150,0,0.0253296,0.0125122,-0.0158691,0.0637817,-0.0579834,0.0915527,0.0201416,-0.100708,-0.0317383,-0.296326,-0.0222778,0.00396729,0.020752
150,1,0.017395,0.03479,-0.000610352,0.0640869,0.0204468,0.0808716,0.0372314,0.0128174,-0.0497437,-0.244751,-0.027771,0.0177002,0.00183105
150,2,0.0115967,-0.0012207,0.000915527,0.0527954,0.0149536,0.0485229,0.0341797,-0.00671387,-0.0964355,-0.242615,-0.0247192,0.0311279,0.0146484
150,3,-0.0491333,0.0143433,-0.0366211,0.0234985,0.0247192,0.0588989,0.0387573,-0.0302124,-0.0515747,3.2962,-0.00579834,0.00305176,0.0228882
150,4,0.0259399,0.0112915,-0.0488281,0.0292969,0.0320435,0.0497437,0.0274658,-0.0088501,-0.043335,-0.298157,-0.0250244,0.00854492,0.0308228
151,0,0.0222778,0.0140381,-0.0897217,0.0222778,0.0314331,0.0241089,0.0354004,-0.00213623,-0.0338745,-0.26947,-0.0250244,0.0485229,0.015564
151,1,0.00793457,0.00640869,0.109558,0.0286865,0.0302124,0.0820923,0.0216675,0.0250244,-0.0195312,-0.256653,-0.0112915,0.0140381,0.0231934
151,2,0.00976562,0.000915527,0.0689697,0.0338745,0.0323486,0.0411987,0.027771,0.0195312,0.000305176,-0.227966,-0.0112915,0.0131226,0.0213623
151,3,-0.0332642,0.0384521,-0.0341797,-0.0231934,0.0238037,0.0378418,0.055542,0.0820923,0.0137329,-0.178528,0.00854492,0.00396729,0.0341797
151,4,0.0283813,0.00915527,-0.0415039,0.0183105,0.038147,-0.065918,0.0262451,0.110779,0.0161743,-0.220032,-0.0161743,0.0622559,0.0210571
152,0,0.0463867,0.0259399,-0.0531006,-0.00274658,0.0436401,-0.00488281,0.0262451,0.151062,0.0292969,-0.224609,-0.0259399,0.0112915,0.0088501
152,1,0.0177002,0.00610352,-0.0759888,0.0262451,0.0601196,-0.0247192,0.0344849,0.149536,0.0366211,3.31207,-0.0210571,0.00762939,0.0119019
152,2,0.0405884,-0.0201416,-0.00640869,0.0332642,0.0234985,-0.0268555,0.020752,0.0997925,0.0430298,3.29987,-0.0320435,0.00701904,0.0286865
152,3,0.0119019,0.0265503,0.0106812,0.00793457,0.0234985,-0.0958252,0.0244141,0.0457764,0.0134277,3.30658,-0.0158691,0.0372314,0.0253296
152,4,0.0231934,-0.0012207,-0.00427246,0.0180054,0.0442505,-0.0421143,0.0335693,0.0836182,0.022583,3.31146,-0.0204468,0.0183105,0.0128174
153,0,0.0247192,0.012207,0.0228882,0.012207,0.0222778,-0.017395,0.0247192,-0.000305176,0.0488281,3.31207,-0.0210571,0.0204468,0.0210571
153,1,0.0219727,0.0201416,0.071106,0.0198364,0.0286865,-0.0314331,0.0366211,0.00549316,0.0430298,3.31207,-0.0189209,0.0210571,0.022583
153,2,0.0228882,0.00396729,0.0384521,0.0274658,0.043335,-0.00427246,0.0167847,0.123901,0.0527954,3.29132,-0.0213623,0.0158691,0.0247192
153,3,-0.00701904,0.0180054,0.0558472,0.0238037,0.0183105,0.00183105,0.0137329,0.149231,0.0537109,3.3194,-0.00457764,0.00152588,0.0164795
153,4,-0.00823975,0.000610352,-0.0582886,0.020752,0.00244141,0.0405884,0.027771,0.105896,0.0473022,3.30566,-0.00793457,0.0143433,0.0280762
154,0,0.0259399,0.022583,-0.0646973,0.0357056,0.0326538,0.0180054,0.020752,0.15625,0.0387573,3.31482,-0.027771,0.0250244,0.00579834
154,1,0.0164795,0.012207,-0.0482178,0.0296021,0.0231934,0.0442505,0.0241089,0.071106,0.038147,3.29895,-0.0146484,0.012207,0.00915527
154,2,0.00396729,0.00213623,-0.0619507,0.0387573,0.03479,0.0524902,0.0518799,0.0708008,0.0396729,3.31268,-0.0186157,0.00732422,0.00610352
154,3,0.0088501,0.0415039,-0.0653076,0.0274658,0.0289917,0.0570679,0.0320435,-0.0387573,0.0408936,3.3139,-0.0305176,-0.00915527,0.0146484
154,4,0.0201416,0.00762939,-0.0561523,0.0393677,0.012207,0.0671387,0.0534058,0.0195312,0.0411987,3.31512,-0.0128174,0.012207,-0.00579834
155,0,0.0320435,0.00366211,-0.0720215,0.0341797,0.0213623,0.0463867,0.0350952,0.123291,0.0152588,3.29773,-0.0109863,-0.0109863,0.00518799
155,1,0.0198364,0.0152588,0.0241089,0.0314331,-0.00518799,0.0549316,0.0253296,0.0784302,0.0210571,3.31116,-0.00427246,0.0479126,0.015564
155,2,0.0109863,0.0286865,0.085144,0.0183105,0.0259399,-0.0119019,0.0335693,0.100708,0.0326538,3.33832,-0.0100708,0.00640869,0.0238037
155,3,0.0286865,0.0186157,-0.085144,0.0170898,0.0164795,0.0894165,0.0442505,0.101013,-0.0387573,3.2959,-0.00579834,0.0338745,0.0198364
155,4,0.0378418,0.0253296,-0.072937,0.0372314,0.0198364,0.0567627,0.0418091,0.170288,0.0134277,3.24677,-0.00915527,0.0256348,0.0161743
156,0,0.0222778,0.0265503,-0.0765991,0.00518799,0.0143433,0.0250244,0.0357056,0.0524902,0.00518799,3.18481,-0.0198364,0.0219727,0.00823975
156,1,0.00183105,0.055542,-0.0289917,0.027771,0.00701904,0.0238037,-0.000610352,0.107727,0.0158691,3.07983,-0.00305176,-0.020752,0.0302124
156,2,0.0305176,0.0204468,-0.0192261,0.0161743,0.0338745,-0.00274658,0.0402832,0.137634,0.00946045,3.02216,-0.00183105,0.0143433,0.0149536
156,3,0.0579834,0.0219727,0.0585938,-0.0332642,0.0222778,0.00305176,0.0775146,0.0836182,0.00366211,2.94556,-0.017395,0.0131226,0.022583
156,4,0.0204468,0.00579834,0.118408,-0.00335693,0.00549316,-0.00213623,0.0286865,0.102234,-0.0012207,2.88391,-0.0283813,0.00671387,0.0198364
157,0,0.027771,-0.0167847,0.0479126,0.0125122,0.0234985,0.0106812,0.0375366,0.083313,0.0152588,2.82898,-0.0375366,0.0152588,0.0177002
157,1,0.0289917,0.0100708,-0.0384521,-0.000915527,0.0268555,0.00274658,0.0308228,0.0778198,0.0195312,2.76703,-0.0259399,0.0192261,0.0341797
157,2,0.0662231,0.0112915,-0.0494385,-0.0320435,0.0283813,0.00305176,0.0378418,0.0604248,0.0402832,2.71118,-0.0646973,0.0140381,0.0198364
157,3,0.020752,0.0143433,0.00610352,-0.00244141,0.017395,-0.0137329,0.0250244,0.0570679,0.022583,2.6535,-0.0323486,0.0576782,0.0253296
157,4,0.0289917,0.00640869,-0.0546265,0.0692749,0.0262451,0.00427246,-0.00671387,0.0088501,0.0384521,-3.17993,-0.0375366,0.0146484,0.0158691
158,0,0.0262451,0.0125122,0.0674438,0.00213623,0.0350952,0.0265503,0.0253296,0.0411987,0.0244141,-3.18542,-0.0378418,0.0140381,0.0274658
158,1,0.0311279,0.00579834,0.114441,-0.0186157,0.022583,0.0350952,-0.0479126,0.0491333,0.032959,2.65991,-0.0411987,0.0125122,0.020752
158,2,0.0201416,0.0201416,0.100098,-0.0119019,0.017395,0.0643921,0.0326538,0.0613403,0.0378418,2.64557,-0.0375366,0.0128174,0.0393677
158,3,0.0238037,0.0286865,0.0421143,0.0183105,0.012207,0.0973511,0.0320435,-0.101013,0.0570679,2.58759,-0.0360107,0.00854492,0.0280762
158,4,0.0323486,-0.0149536,0.0872803,-0.0152588,-0.00213623,0.0488281,0.0146484,-0.105286,0.0299072,2.5293,-0.00457764,0.0219727,0.0158691
159,0,0.0241089,0.0250244,0.102234,0.010376,0.0186157,0.0628662,0.0256348,-0.101318,0.015564,2.46582,-0.0262451,0.0100708,0.0222778
159,1,0.0201416,0.0100708,0.0875854,0.00305176,0.0161743,0.0613403,0.0289917,-0.0814819,0.0357056,2.42401,-0.0201416,0.00946045,0.0140381
159,2,0.0241089,0.00701904,0.0830078,0.0247192,0.0289917,0.0427246,0.0149536,-0.0872803,0.0216675,2.3703,-0.0115967,0.0213623,0.0244141
159,3,0.0283813,0.0140381,0.0817871,0.0286865,0.0234985,0.00213623,0.0265503,-0.088501,-0.010376,2.31537,-0.00976562,0.0244141,0.0180054
159,4,0.0344849,0.0369263,0.0790405,0.00915527,0.0296021,0.0653076,0.0250244,-0.108032,0.0286865,2.2641,-0.0137329,0.0524902,0.0335693
160,0,0.0354004,0.0222778,0.098877,0.0115967,0.0253296,0.0299072,0.0167847,-0.0744629,0.0405884,2.25067,-0.00427246,0.0234985,0.0506592
160,1,0.0274658,-0.00213623,-0.03479,0.0289917,0.0854492,0.0360107,0.0341797,-0.108337,0.0576782,2.17682,-0.0119019,0.0195312,0.00488281
160,2,0.0408936,-0.0238037,-0.027771,0.012207,0.017395,0.0234985,0.0354004,-0.0311279,0.027771,2.09869,-0.0164795,0.0222778,0.0143433
160,3,-0.00274658,-0.0012207,-0.0448608,0.0296021,0.00396729,0.0234985,0.038147,-0.0518799,0.03479,2.09229,-0.00671387,0.0219727,0.00488281
160,4,0.0228882,0.0012207,0.00488281,-0.00213623,0.0112915,0.0128174,0.0357056,-0.0454712,0.0119019,2.04987,-0.0253296,0.0247192,0.0302124
161,0,0.0222778,0.00457764,0.0814819,0.0125122,0.0112915,0.0167847,0.0378418,-0.0494385,0.027771,1.98578,-0.0164795,0.022583,0.0186157
161,1,0.00976562,-0.0256348,0.0292969,0.0125122,0.00549316,0.0216675,0.0204468,-0.00823975,0.0274658,1.89545,-0.00823975,0.0134277,-0.00183105
161,2,0.0256348,-0.0119019,0.0650024,0.00335693,0.0119019,0.0012207,0.0311279,-0.00701904,0.043335,1.85089,-0.0299072,0.0158691,0.0234985
161,3,0.0363159,-0.0164795,0.0564575,-0.0143433,0.0201416,0.010376,0.0125122,-0.00488281,0.0146484,1.78436,-0.0265503,0.0280762,0.0274658
161,4,0.0167847,0.0250244,0.00152588,-0.00640869,-0.0228882,0.0231934,0.0241089,0.0115967,0.0253296,1.71387,-0.0183105,0.0259399,0.0292969
162,0,0.012207,0.03479,0.0247192,0.00305176,0.0183105,0.0115967,0.0317383,0.022583,0.0134277,1.651,-0.0234985,0.010376,0.000305176
162,1,0.00915527,0.0402832,-0.038147,0.0738525,0.0134277,0.00274658,0.0717163,0.0506592,0.0445557,1.59027,-0.0372314,0.0210571,0.0274658
162,2,0.0195312,0.0650024,-0.0534058,-0.0228882,0.0219727,0.010376,0.0335693,0.104675,0.0567627,1.51154,-0.0408936,0.0274658,0.0167847
162,3,0.017395,0.0286865,-0.0302124,-0.00396729,-0.00915527,0.0158691,0.0411987,0.118713,0.0149536,1.47308,-0.0265503,-0.017395,0.0213623
162,4,0.0308228,0.0521851,0.0375366,0.0161743,0.0177002,0.0357056,0.0271606,0.133667,0.0341797,1.4035,-0.0283813,0.0793457,0.0311279
163,0,0.0271606,0.0460815,-0.0134277,-0.00732422,-0.00427246,0.0280762,0.0292969,0.13855,0.0363159,1.3559,-0.00640869,0.0326538,0.03479
163,1,0.0213623,0.0534058,0.00610352,0.0143433,0.0354004,0.101929,0.0241089,0.159302,-0.00274658,1.2912,-0.0411987,0.0231934,0.0088501
163,2,0.0250244,0.0463867,0.0314331,-0.0341797,0.0100708,0.0613403,0.072937,0.152893,0.0180054,1.31104,-0.0137329,0.0250244,-0.017395
163,3,0.0238037,0.0332642,0.03479,0.0265503,0.0201416,0.0338745,0.0289917,0.145874,-0.00335693,1.20789,-0.0302124,0.0149536,0.0112915
163,4,0.0341797,0.0262451,0.0299072,0.0509644,0.00183105,0.0387573,0.0317383,0.106506,0.0344849,1.15997,-0.00976562,0.0601196,0.032959
164,0,0.0210571,0.00305176,0.0296021,0.0598145,-0.0308228,0.0317383,0.0469971,0.101624,0.00732422,-0.223694,-0.022583,0.0210571,0.010376
164,1,0.0247192,-0.010376,0.0332642,0.0506592,0.0378418,0.00305176,0.0302124,0.142212,0.0109863,-3.16833,-0.0250244,0.0292969,0.0143433
164,2,0.0296021,0.0164795,0.0311279,0.0457764,0.00427246,-0.0106812,0.0320435,0.085144,0.0158691,-3.17871,-0.0708008,0.0201416,0.0213623
164,3,0.0143433,-0.015564,0.0195312,0.0543213,0.00244141,-0.0283813,0.0320435,0.136719,0.0314331,1.4151,-0.0183105,0.0189209,-0.020752
164,4,0.0274658,0.00946045,0.010376,0.101318,0.00579834,-0.0186157,-0.0186157,0.22583,0.038147,0.368652,-0.0134277,0.00427246,0.0231934
165,0,0.0268555,0.0167847,0.0125122,0.057373,-0.000915527,-0.0274658,0.0256348,0.0222778,0.0485229,1.39496,-0.0323486,0.0119019,0.020752
165,1,0.038147,0.00518799,0.0244141,0.0238037,0.0149536,-0.0158691,0.0314331,-0.0469971,0.0384521,-3.17017,0.0109863,0.0292969,0
165,2,0.03479,0.0332642,0.00976562,0.0430298,-0.00335693,-0.0183105,0.0219727,0.00946045,0.0265503,-3.17566,-0.0115967,0.00823975,0.0256348
165,3,0.0546265,0.0189209,0.0198364,0.0366211,0.022583,-0.00946045,0.0332642,-0.039978,-0.00305176,-3.17261,-0.0268555,0.0695801,0.0167847
165,4,0.0357056,0.0183105,0.0134277,0.0177002,0.0238037,-0.0158691,0.017395,-0.0488281,0.0894165,-3.16864,-0.0180054,-0.020752,0.0393677
166,0,0.0308228,0.0289917,-0.00335693,0.0158691,0.0283813,-0.00366211,0.0253296,-0.0326538,0.0302124,-3.17047,-0.0286865,0.00579834,0.0219727
166,1,0.0354004,0.0183105,0.0320435,0.020752,0.017395,0.0128174,0.0170898,-0.0476074,0.0360107,-3.17444,-0.0253296,0.0140381,0.0244141
166,2,0.0311279,0.00762939,0.017395,0.0238037,0.0012207,0.00396729,0.0259399,-0.0238037,0.0393677,2.22534,-0.0262451,0.0326538,0.020752
166,3,0.0363159,-0.0201416,-0.00213623,-0.000610352,0.0253296,-0.0350952,0.0363159,-0.0308228,0.108948,2.21008,-0.0238037,0.0772095,0.00854492
166,4,0.00823975,0.0250244,0,-0.00457764,0.0146484,-0.0119019,0.0128174,-0.0866699,0.0271606,2.12555,-0.0286865,0.0289917,0.0213623
167,0,0.0393677,0.0372314,-0.00610352,0.0152588,-0.0289917,-0.0012207,0.0213623,-0.0228882,0.0158691,-3.18115,-0.0253296,0.0265503,0.00793457
167,1,0.0289917,-0.0186157,0.00610352,0.0106812,0.0363159,-0.000305176,0.0201416,0.0125122,0.00518799,-3.16895,-0.0161743,0.0396729,0.0128174
167,2,0.0259399,0.0201416,-0.00671387,0.00183105,0.0271606,-0.015564,0.00854492,-0.0128174,0.032959,-3.16254,-0.027771,0.0241089,0.0152588
167,3,0.0286865,0.022583,-0.0317383,0.0177002,0.0326538,-0.078125,0.0125122,0.00152588,0.0344849,-3.18298,-0.0387573,0.0280762,-0.00335693
167,4,0.0534058,0.0210571,0.00366211,-0.00274658,0.0463867,-0.0354004,0.0170898,-0.00701904,0.0344849,-3.17719,-0.0369263,0.0308228,0.0149536
168,0,0.0344849,-0.0167847,0.00793457,0.0128174,0.0408936,-0.055542,0.0317383,0.0253296,0.0360107,-3.19763,-0.0338745,0.0634766,0.00427246
168,1,0.0372314,0.0170898,0.0119019,0.00427246,0.0265503,-0.0637817,0.0112915,-0.000610352,0.0320435,-3.172,-0.0250244,0.0112915,0.0201416
168,2,0.03479,0.0186157,-0.00366211,-0.0012207,0.0131226,-0.0396729,0.0128174,0.0424194,0.0231934,-3.17383,-0.0314331,0.0366211,0.0152588
168,3,0.020752,0.0305176,0.000610352,-0.00640869,0.0219727,-0.0408936,-0.0289917,0.22583,0.0271606,-2.71576,-0.0360107,0.0317383,-0.0286865
168,4,0.0244141,0.0338745,-0.03479,-0.00671387,0.0274658,-0.00701904,0.0192261,0.110168,0.03479,-2.3999,-0.0454712,0.012207,0.0802612
169,0,0.038147,0.0302124,-0.00427246,-0.00305176,0.0317383,-0.00946045,0.0311279,0.0402832,0.0280762,-1.23474,-0.0314331,0.0234985,-0.0238037
169,1,0.0244141,0.0637817,0.00152588,0.00762939,0.0234985,-0.0100708,0.0146484,0.0805664,0.0262451,3.11035,-0.0497437,0.0146484,0.0286865
169,2,0.0164795,0.0595093,0.0106812,-0.00396729,0.0326538,-0.0088501,0.0143433,0.115051,0.0372314,3.06854,-0.0418091,0.0360107,-0.0119019
169,3,0.00274658,0.0692749,-0.00671387,0.00213623,0.0256348,-0.000915527,0.0308228,0.00732422,0.0350952,2.98004,-0.043335,0.0292969,0.0289917
169,4,0.0518799,0.0964355,-0.012207,-0.0109863,0.0439453,0.00213623,0.0280762,0.0576782,0.027771,2.87842,-0.0445557,0.0305176,0.0320435
170,0,0.0280762,0.0512695,0.00274658,-0.00518799,0.0256348,0.0106812,0.0335693,0.19104,0.045166,2.7652,-0.0405884,0.0262451,0.0357056
170,1,0.0378418,0.0363159,-0.00518799,-0.0213623,0.0189209,0.0402832,0.0354004,0.188904,0.0289917,2.60681,-0.017395,0.0338745,0.0723267
170,2,0.0326538,0.0280762,0.0265503,0.00213623,0.0286865,0.0991821,0.0106812,0.183411,-0.0271606,1.96808,-0.032959,0.0280762,0.0411987
170,3,0.0250244,0.0213623,0.015564,-0.00488281,0.015564,0.085144,0.0241089,0.166626,0.0256348,2.39319,-0.0430298,0.0296021,0.0445557
170,4,0.0320435,-0.017395,0,0.0125122,0.0167847,0.0772095,0.0308228,0.168762,0.0283813,2.38861,-0.0335693,0.012207,0.0189209
171,0,0.0299072,0.0299072,-0.0012207,0.0198364,0.00823975,0.0827026,0.017395,0.149231,0.000915527,2.31293,-0.0146484,0.0228882,0.0244141
171,1,0.0427246,0.0601196,0.0198364,0.0378418,0.0222778,0.0976562,0.010376,0.0906372,0.0112915,2.04681,-0.0366211,0.0289917,0.0402832
171,2,0.0302124,0.0512695,0.0167847,0.0427246,0.0210571,0.118103,0.0167847,-0.115356,-0.00549316,0.0515747,-0.0201416,0.0411987,0.0360107
171,3,0.0265503,0.045166,0.015564,0.0460815,0.0164795,0.126343,0.0210571,-0.0708008,-0.0140381,1.13495,-0.0299072,0.03479,0.0390625
171,4,0.0296021,0.0198364,0.000915527,0.0341797,0.00976562,0.0979614,0.0262451,-0.020752,-0.00610352,1.93939,-0.017395,0.0360107,0.0390625
172,0,0.0234985,0.0195312,0.00793457,0.0540161,0.00457764,0.110474,0.0708008,-0.0732422,0.0161743,1.32935,-0.0180054,0.043335,0.050354
172,1,0.0323486,0.0576782,0.012207,0.0369263,0.00762939,0.0796509,0.0088501,-0.0631714,0.00427246,-0.66864,-0.0286865,0.0592041,0.0302124
172,2,0.0698853,-0.00183105,0.00915527,0.0219727,0.00976562,0.0268555,0.0109863,-0.0598145,0.0167847,-2.66357,-0.017395,0.0350952,0.0393677
172,3,0.0265503,0.0161743,0.010376,0.020752,0.00366211,0.0509644,0.00640869,-0.0689697,0.0177002,0.279846,-0.020752,0.0427246,0.0109863
172,4,0.0238037,0.0442505,0.0588989,0.0299072,0.0149536,0.00335693,0.010376,-0.0973511,0.00946045,2.06909,-0.0167847,0.0335693,0.0292969
173,0,0.0402832,0.0415039,-0.0357056,0.0216675,0.0222778,-0.0360107,0.00823975,-0.0799561,0.0137329,-0.50354,-0.0219727,0.0302124,0.0231934
173,1,0.0268555,0.0534058,0.0137329,0.0128174,0.0204468,-0.00488281,0.0189209,-0.0839233,0.00823975,-2.45087,-0.0216675,0.0283813,0.0308228
173,2,0.0292969,0.0213623,0.0106812,0.00762939,0.0112915,0.000915527,0.0115967,-0.0827026,-0.00366211,0.542603,-0.0216675,0.0314331,0.0183105
173,3,0.0384521,0.038147,0.00793457,0.00762939,0.00915527,0.0473022,0.00823975,-0.0695801,0.0115967,-2.76184,-0.03479,0.0354004,0.0216675
173,4,0.0192261,0.0485229,-0.00183105,0.057373,0.0109863,-0.015564,0.0189209,-0.0753784,0.0158691,0.90271,-0.0259399,0.0296021,0.015564
174,0,0.0378418,0.0527954,0.0100708,0.0253296,0.0540161,-0.010376,0.0219727,-0.0396729,0.0125122,-3.19336,-0.0134277,0.0506592,0.0274658
174,1,0.0469971,0.0708008,0.0170898,0.0180054,0.00915527,-0.0109863,0.0274658,-0.0308228,0.0436401,-3.18176,-0.0280762,0.0274658,0.0354004
174,2,0.0357056,0.0302124,0.03479,0.0289917,0.0137329,-0.0750732,0.0280762,-0.0326538,0.0460815,-3.17932,-0.0180054,0.0271606,0.0167847
174,3,0.0268555,0.0192261,0.00732422,0.0366211,0.038147,-0.03479,0.0195312,-0.039978,0.057373,2.43164,-0.0192261,0.0338745,0.0323486
174,4,0.0396729,0.0271606,0.038147,0.0326538,0.0222778,-0.0463867,0.0088501,-0.0512695,0.0518799,2.40875,-0.0183105,0.0317383,0.0881958
175,0,0.0311279,0.0198364,0.0466919,0.010376,0.010376,-0.0317383,0.0274658,-0.0640869,0.0445557,2.31964,-0.0210571,0.0234985,0.0210571
175,1,0.0405884,0.0360107,0.0204468,0.0311279,0.0210571,-0.0265503,0.00823975,-0.0170898,0.0326538,2.23206,-0.0189209,0.00701904,0.0384521
175,2,-0.0143433,0.0344849,0.00946045,0.032959,0.0317383,0.00396729,0.017395,-0.0210571,0.032959,2.13867,-0.00579834,0.0292969,0.0231934
175,3,0.0393677,0.0213623,0.0271606,0.0366211,0.0286865,0.015564,0.0238037,-0.0186157,0.0253296,2.05719,-0.0354004,0.0296021,0.0296021
