Devices
1000
,,Myon - Voltage,,,,,,,,,,,,,
Frame,Sub Frame,GC-M,TA,SOL,VM,VL,RF,BF,ST,GLUT-M,Gracilis,EO,GC-L,Semimembranosus
,,V,V,V,V,V,V,V,V,V,V,V,V,V
1,0,0.0219727,0.00732422,0.0106812,0.0161743,-0.00640869,0.03479,0.0744629,0.0375366,0.032959,0.0296021,-0.0228882,0.00335693,0.0149536
1,1,0.0195312,0.0137329,0.0378418,0.0280762,0.017395,-0.00732422,0.0128174,0.0231934,0.00732422,0.0354004,-0.0231934,0.0222778,0.010376
1,2,0.0222778,0.00274658,0.0167847,0.000305176,0.0180054,0.020752,0.0210571,0.0198364,0.0350952,0.0299072,-0.0253296,0.00915527,0.0228882
1,3,0.0378418,0.0192261,0.010376,0.0100708,0.0216675,0.0350952,0.0119019,-0.00946045,0.038147,0.0421143,0.0119019,0.0274658,0.00854492
1,4,0.0305176,0.0131226,0.0125122,-0.00823975,0.0125122,0.0274658,0.045166,0.0305176,0.0158691,0.0253296,-0.0354004,0.0390625,0.0195312
2,0,0.0265503,0.0250244,0.0149536,0.00976562,0.0146484,0.0183105,0.0241089,0.0259399,0.0253296,0.0180054,-0.0292969,0.00762939,0.0305176
2,1,0.0280762,0.0390625,0.017395,0.0247192,0.0143433,0.0161743,0.0210571,0.017395,0.0259399,0.0344849,-0.0302124,0.0234985,0.0198364
2,2,-0.000305176,0.0262451,0.0289917,0.0100708,0.0177002,0.000610352,0.0250244,0.0198364,0.0274658,0.0314331,-0.0180054,0.0152588,-0.0509644
2,3,0.0186157,0.0189209,0.012207,0.00915527,0.0143433,-0.0119019,0.0527954,0.0143433,0.027771,0.0366211,-0.0305176,0.0140381,-0.0143433
2,4,0.0228882,0.00823975,0.0106812,-0.0012207,0.0140381,0.0189209,0.0134277,0.0311279,0.0302124,0.0167847,-0.0283813,0.0265503,0.00701904
3,0,0.0170898,0.0177002,0.0125122,-0.00732422,0.0088501,0.0186157,0,0.0131226,0.0308228,0.0289917,-0.0228882,0.0143433,0.0335693
3,1,0.0234985,0.0289917,0.0289917,0.00640869,0.010376,-0.0198364,0.0311279,0.0354004,-0.0192261,0.0286865,-0.027771,-0.00274658,0.0234985
3,2,0.0201416,0.0338745,0.0195312,0.0161743,0.0363159,0.00671387,0.0247192,0.0344849,0.0326538,0.0241089,-0.0280762,0.0247192,0.0115967
3,3,0.0518799,0.0167847,0.0238037,0.0158691,0.0161743,0.0216675,0.0204468,0.0262451,0.038147,0.017395,-0.027771,0.0177002,0.0305176
3,4,0.0265503,0.0540161,0.017395,0.00915527,0.0454712,0.0140381,0.0308228,0.0192261,0.0323486,0.0274658,-0.0241089,0.020752,0.032959
4,0,0.0234985,0.00579834,0.0137329,0.0183105,0.0115967,0.0100708,0.0289917,0.0305176,0.0387573,0.0350952,-0.0231934,0.00366211,0.0100708
4,1,0.0125122,0.0192261,0.0192261,0.00946045,0.0238037,0.062561,0.0213623,0.0213623,0.0280762,0.0241089,-0.0137329,0.0311279,0.010376
4,2,0.0332642,0.0106812,0.00671387,0.00946045,0.00946045,0.0646973,0.0204468,0.0183105,0.0634766,0.0152588,-0.0286865,0.0216675,0.0088501
4,3,0.0247192,0.0457764,-0.0286865,0.015564,0.0210571,0.0576782,0.0320435,0.0430298,0.0375366,0.022583,-0.0418091,0.0210571,0.0216675
4,4,0.0308228,0.020752,0.00183105,0.010376,0.00732422,0.0186157,0.0332642,0.0140381,0.0311279,0.0375366,-0.0323486,0.0164795,0.0161743
5,0,0.0857544,0.0415039,0.0088501,0.0299072,0.0131226,0.00579834,0.0170898,0.0216675,0.0372314,0.0231934,-0.0436401,0.00946045,0.010376
5,1,0.0302124,0.0222778,0.00518799,0.0247192,-0.0125122,0.0231934,0.0219727,0.00640869,0.0286865,0.0326538,-0.0335693,0.0210571,0.0140381
5,2,0.020752,0.0311279,0.00762939,0.0299072,0.022583,0.022583,-0.00823975,0.0140381,0.0274658,0.00366211,-0.0613403,0.012207,0.0524902
5,3,0.0259399,0.022583,-0.0210571,0.0213623,0.0234985,0.0100708,0.0274658,0.0149536,0.0231934,0.0305176,-0.032959,0.00518799,0.022583
5,4,0.032959,0.0231934,0.0128174,0.0189209,0.0088501,0.0732422,0.03479,0.010376,-0.020752,0.0344849,-0.0247192,0.017395,0.0341797
6,0,0.0231934,0.0262451,0.00457764,0.0415039,0.0125122,0.0146484,0.0708008,0.0299072,0.0253296,-0.0140381,-0.0311279,0.00854492,0.0128174
6,1,0.0256348,0.0280762,0.0253296,0.0189209,-0.000610352,0.0210571,0.0109863,0.0241089,0.0338745,0.015564,-0.0326538,0.00915527,0.0164795
6,2,0.0195312,0.0201416,0.0244141,0.0234985,-0.0158691,0.0292969,0.00610352,0.0189209,0.0283813,0.0234985,-0.0186157,0.0216675,0.0234985
6,3,0.0305176,0.0402832,0.0228882,0.0323486,0.0186157,0.0149536,0.0198364,-0.0012207,0.0292969,0.0109863,-0.0473022,0.0134277,0.0115967
6,4,0.0231934,0.0756836,0.020752,0.010376,-0.00732422,0.00183105,0.0244141,0.03479,0.0244141,0.0372314,-0.0326538,0.0390625,0.0146484
7,0,0.0332642,0.0387573,0.0262451,0.0238037,0.00579834,0.00640869,0.0146484,0.0186157,0.0143433,0.0357056,-0.027771,0.0314331,0.0241089
7,1,0.0418091,0.0222778,0.0369263,0.0170898,0.015564,0.0231934,-0.000305176,0.0115967,0.0210571,0.0418091,-0.0320435,0.0183105,-0.00335693
7,2,0.0387573,0.0222778,0.0137329,0.0491333,0.0195312,0.0296021,0.0714111,0.0186157,0.0125122,0.0354004,-0.0296021,0.0396729,0.0296021
7,3,0.0320435,0.0286865,0.0241089,0.0125122,0.0100708,0.00640869,0.0259399,0.0296021,0.010376,-0.00793457,-0.020752,0.0262451,-0.0112915
7,4,0.0387573,0.0231934,0.020752,0.0390625,0.00549316,0.012207,0.0473022,0.00762939,0.0366211,0.0384521,0.0112915,0.0289917,0.0405884
8,0,0.0247192,0.0283813,0.0137329,0.0177002,0.0213623,0.00732422,0.012207,0.0250244,0.0363159,0.0311279,-0.0204468,0.0213623,0.0247192
8,1,0.0338745,0.0234985,0.0177002,0.022583,0.00640869,0.0152588,0.00915527,0.0195312,0.0216675,0.0338745,-0.0189209,0.0387573,0.0308228
8,2,0.0244141,0.0320435,0.0234985,0.0271606,0.0115967,0.0112915,0.0183105,0.0228882,0.020752,0.022583,-0.0213623,0.0283813,0.0354004
8,3,0.032959,0.0271606,0.0268555,0.00610352,0.0115967,0.0222778,-0.0204468,0.0341797,0.00549316,0.0338745,-0.0314331,0.0231934,0.0250244
8,4,0.0906372,0.0259399,0.0180054,0.000915527,-0.0119019,0.00579834,-0.0341797,0.0231934,0.0228882,-0.00640869,-0.0457764,0.0268555,0.0253296
9,0,0.0234985,0.027771,0.0115967,0.00976562,0.00732422,0.00427246,0.0259399,0.0222778,0.0256348,0.0274658,-0.0332642,0.0302124,0.0234985
9,1,0.0308228,0.0369263,0.0146484,0.0305176,0.0146484,0.0161743,0.0299072,0.0106812,-0.0128174,0.0320435,-0.0289917,0.00915527,0.03479
9,2,0.03479,0.0296021,0.0134277,0.00915527,0.0125122,0.00854492,0.0112915,0.0338745,0.0259399,0.0338745,-0.0283813,0.0296021,0.0231934
9,3,0.0424194,0.0656128,0.0286865,0.0125122,-0.0283813,0.0164795,0.00854492,0.0698853,0.017395,0.0308228,-0.0204468,0.00946045,0.0427246
9,4,0.0341797,0.0292969,0.0210571,-0.00396729,0.0186157,0.0231934,0.0170898,0.0204468,0.0341797,0.0454712,-0.0289917,0.0286865,0.032959
10,0,0.0296021,0.0201416,0.0106812,0.0204468,0.0234985,0.00946045,0.0253296,0.0228882,0.022583,0.0283813,-0.0244141,0.0253296,0.0299072
10,1,0.0317383,0.0372314,0.0167847,0.0183105,-0.0177002,0.0216675,0.00488281,0.0473022,0.0189209,0.0454712,-0.039978,0.027771,0.0332642
10,2,0.0369263,0.0115967,0.0189209,0.0201416,0.0222778,-0.0100708,0.0183105,0.0366211,0.0280762,0.0378418,-0.0271606,0.0112915,0.0283813
10,3,0.0552368,0.0430298,0.017395,0.0637817,0.0189209,0.0219727,-0.0216675,0.0112915,0.0292969,0.0228882,0.0152588,0.0302124,0.0320435
10,4,0.0286865,0.0390625,0.0219727,0.0219727,0.00152588,-0.0390625,0.0280762,0.0244141,0.0469971,0.0170898,-0.0344849,0.03479,0.0143433
11,0,0.032959,0.0515747,0.0146484,0.0192261,0.0100708,0.0106812,0.0271606,0.0283813,0.0137329,0.00946045,-0.0408936,0.0314331,0.0747681
11,1,0.0518799,0.038147,0.0262451,0.0384521,0.0189209,0.0012207,-0.000610352,0.0375366,0.0390625,0.0350952,-0.0338745,-0.0012207,0.0152588
11,2,0.0350952,0.0738525,0.0469971,0.03479,0.0674438,0.00854492,0.0274658,0.0283813,0.0158691,0.0518799,-0.0393677,0.0299072,0.0424194
11,3,0.0244141,-0.0302124,0.0354004,0.0222778,0.0375366,0.0180054,0.0228882,0.0378418,0.0198364,0.0311279,-0.0363159,0.0335693,0.0341797
11,4,0.0228882,0.0256348,0.0134277,0.0436401,0.00305176,0.00549316,-0.00244141,0.0714111,0.00854492,0.0283813,-0.0286865,0.0216675,0.0341797
12,0,0.039978,0.017395,0.0222778,0.0228882,0.0259399,0.0189209,0.0238037,0.00427246,0.03479,0.0238037,-0.0326538,0.0146484,0.0265503
12,1,0.0265503,0.0137329,0.0283813,0.022583,0.0158691,0.00701904,0.0201416,0.0253296,0.0192261,0.0326538,-0.0244141,0.043335,0.03479
12,2,0.0466919,0.0341797,0.0192261,0.0164795,0.0137329,0.0198364,0.00396729,0.0305176,0.0158691,0.0323486,-0.0506592,0.022583,0.0283813
12,3,0.0241089,0.03479,0.0415039,0.010376,0.0119019,0.00518799,0.0198364,0.0183105,0.0250244,0.0350952,-0.0213623,0.020752,0.0112915
12,4,0.0274658,0.0805664,0.0320435,0.0231934,0.06073,0.00183105,0.0152588,0.0100708,0.0366211,0.0158691,-0.0314331,0.0411987,0.0210571
13,0,0.0299072,-0.00823975,0.0323486,0.0286865,-0.0180054,0.0119019,0.0088501,-0.0189209,0.032959,0.0378418,-0.0369263,0.0332642,0.0228882
13,1,0.0552368,0.0485229,0.0360107,0.0271606,-0.00793457,0.0219727,0.0143433,0.0180054,0.0186157,0.0280762,-0.0485229,0.0302124,0.0271606
13,2,0.0201416,0.0308228,0.0299072,0.0366211,0.0140381,0.0244141,-0.00274658,0.00152588,0.0256348,0.00946045,-0.0424194,0.038147,0.0292969
13,3,-0.0177002,0.0415039,0.0167847,0.0457764,0.0231934,0.0088501,0.020752,0.0234985,0.00305176,0.0204468,-0.0192261,0.03479,0.0262451
13,4,0.0341797,0.0378418,0.0241089,0.0231934,0.012207,-0.0234985,0.012207,0.0167847,0.045166,0.0393677,-0.0335693,0.0726318,0.0442505
14,0,0.0137329,0.0372314,0.017395,0.0201416,0.0387573,0.0149536,0.0213623,0.0247192,0.0195312,0.0286865,-0.0167847,0.0366211,0.0228882
14,1,0.0357056,0.0900269,0.0344849,0.0244141,-0.0143433,0.0204468,0.0186157,0.00854492,0.0192261,0.00671387,-0.0338745,0.0210571,0.0274658
14,2,0.0241089,0.0332642,0.090332,0.0186157,0.017395,-0.0314331,0.0238037,0.0180054,0.0338745,0.0308228,-0.0262451,0.0167847,0.0222778
14,3,0.039978,0.0283813,0.0268555,0.0289917,0.0170898,0.0119019,0.00183105,0.032959,0.010376,0.0210571,-0.0405884,0.0299072,0.0296021
14,4,0.032959,-0.010376,0.0411987,0.0250244,0.0915527,0.0158691,0.0344849,-0.0537109,0.0219727,0.0439453,-0.038147,0.03479,0.0296021
15,0,0.0286865,0.0283813,0.0338745,-0.0180054,0.0210571,0.0256348,0.0482178,0.00762939,0.0250244,0.0189209,-0.020752,0.0274658,0.0283813
15,1,0.0262451,0.0424194,0.0265503,0.0198364,0.0360107,0.0115967,0.0247192,-0.0482178,0.00946045,0.0228882,-0.017395,0.0231934,0.027771
15,2,0.0320435,0.0283813,0.0323486,0.0341797,0.0271606,0.017395,-0.00823975,0.0250244,0.0198364,0.0396729,-0.0186157,0.0369263,0.0723267
15,3,0.0259399,0.0408936,-0.0109863,0.0137329,0.0265503,0.0445557,0.027771,0.0183105,0.0479126,0.0186157,-0.0274658,0.0772095,0.0360107
15,4,0.0247192,0.0387573,-0.0344849,0.0198364,0.0219727,0.000915527,0.0244141,0.022583,0.0149536,0.0299072,-0.0357056,0.0387573,0.0308228
16,0,0.00335693,0.0253296,0.0238037,0.0177002,0.0231934,-0.0387573,0.0308228,0.0198364,0.0216675,0.00305176,-0.0189209,0.0262451,0.0274658
16,1,0.0256348,0.0305176,0.0338745,0.0137329,0.0238037,0.0323486,0.0143433,0.0112915,-0.00335693,0.0299072,-0.0271606,0.0274658,0.0811768
16,2,0.0283813,0.0244141,0.0402832,0.0570679,0.0524902,0.0167847,0.0378418,0.0405884,0.0265503,0.0390625,-0.0271606,0.0466919,0.032959
16,3,0.0238037,0.0375366,0.0350952,0.0436401,0.0241089,0.0231934,0.0112915,0.00946045,0.0259399,0.0137329,-0.0256348,0.102539,0.0296021
16,4,0.043335,0.0473022,0.0289917,0.0244141,0.0143433,0.00732422,-0.0384521,0.0152588,0.00671387,0.015564,-0.0283813,0.0250244,0.0360107
17,0,0.0305176,0.0296021,0.0534058,0.0265503,0.0408936,0.0509644,0.0134277,0.0210571,0.0198364,0.0479126,-0.0387573,0.0198364,0.0167847
17,1,0.0228882,0.0305176,0.0466919,-0.00946045,0.0302124,0.00793457,0.0219727,0.0161743,0.00976562,0.0317383,-0.032959,0.0323486,0.022583
17,2,0.0283813,0.0274658,0.0372314,0.0286865,0.015564,0.0241089,0.0140381,0.0268555,0.015564,0.0119019,-0.0286865,0.0259399,0.039978
17,3,0.0372314,0.0308228,0.0292969,0.0164795,0.0158691,0.010376,0.0140381,-0.00427246,0.0161743,0.0234985,-0.0701904,0.038147,0.0332642
17,4,0.0332642,0.0344849,0.0143433,0.0311279,0.022583,0.0149536,0.0140381,0.0183105,0.00671387,0.0180054,-0.0378418,0.0259399,0.0244141
18,0,0.0201416,0.0387573,0.0250244,0.0289917,0.0198364,-0.0137329,0.0204468,0.0201416,0.0210571,0.0219727,-0.0274658,0.0500488,0.00732422
18,1,0.0250244,0.0296021,0.0378418,0.0164795,0.0152588,0.0256348,0.0308228,0.0088501,0.00427246,0.0161743,-0.0350952,0.0167847,0.0231934
18,2,0.0271606,0.0350952,0.065918,0.03479,0.0222778,0.0192261,0.000915527,0.010376,0.0222778,0.0180054,-0.0259399,0.0332642,0.0656128
18,3,0.0250244,0.0338745,0.0335693,0.00793457,0.0335693,0.0204468,0.0183105,0.00793457,0.0332642,0.0158691,-0.0280762,0.0219727,0.0369263
18,4,0.0335693,0.0299072,0.0332642,0.0335693,0.0296021,0.0219727,0.0149536,0.0167847,0.0106812,0.0192261,-0.0338745,0.0271606,0.0262451
19,0,0.0180054,0.0411987,0.000610352,0.0384521,0.0311279,0.0238037,0.0262451,0.012207,0.0265503,0.0115967,-0.0296021,0.062561,0.0338745
19,1,0.0241089,0.0778198,0.0421143,0.0256348,-0.00823975,0.0265503,0.00915527,0.0125122,0.0341797,0.00366211,-0.0241089,0.0305176,0.0442505
19,2,0.0234985,0.0335693,0.0286865,0.0213623,0.03479,-0.0332642,0.0213623,0.0271606,0.0167847,0.0161743,-0.0115967,0.0283813,0.0366211
19,3,0.0125122,0.0253296,0.022583,0.038147,0.0222778,0.0234985,0.0131226,0.0134277,0.0152588,0.00488281,-0.0222778,0.0265503,0.0238037
19,4,0.0186157,0.0335693,0.027771,0.0323486,0.0311279,0.022583,0.020752,0.0112915,0.0323486,0.010376,-0.0216675,0.0128174,0.00671387
20,0,0.000305176,0.0244141,0.0271606,0.071106,0.0311279,0.0234985,0.0183105,0.0375366,0.0228882,-0.00244141,-0.0213623,0.0286865,0.0253296
20,1,-0.00366211,0.0204468,0.0317383,-0.0128174,0.0335693,0.0265503,0.00732422,0.0137329,0.00976562,-0.0158691,-0.022583,0.0167847,0.0286865
20,2,0.0204468,0.0390625,0.0213623,0.027771,0.0189209,0.0421143,0.0140381,0.0152588,0.0204468,0.0140381,-0.0430298,0.0256348,0.0289917
20,3,0.0253296,-0.0128174,0.0366211,0.0344849,-0.0250244,0.0106812,0.0180054,-0.0274658,0.0186157,0.00640869,-0.0131226,0.0286865,0.0280762
20,4,0.0195312,0.0256348,0.0296021,0.0256348,0.0244141,0.0131226,0.0320435,0.0134277,0.0140381,0.0561523,-0.00793457,0.0305176,0.0701904
21,0,0.0308228,0.0189209,0.0241089,0.0250244,0.0198364,0.0274658,0.0213623,0.015564,0.0210571,0.0140381,-0.00366211,0.0686646,0.0219727
21,1,-0.0198364,0.027771,0.0283813,0.0494385,0.0296021,0.0241089,0.0137329,0.0115967,0.0119019,0.0088501,-0.0213623,0.0244141,0.0354004
21,2,0.0170898,0.0372314,0.0393677,0.020752,0.0250244,0.0244141,0.0140381,0.015564,0.0161743,0.0146484,-0.0302124,0.0210571,0.0250244
21,3,0.0311279,0.0186157,0.0387573,0.0228882,0.0253296,0.0177002,0.0106812,0.0259399,0.00335693,0.010376,-0.0198364,0.0396729,0.0338745
21,4,0.0149536,0.0283813,0.0646973,0.010376,0.032959,0.020752,0.0247192,0.0137329,0.0250244,0.00518799,-0.0311279,0.0317383,0.0488281
22,0,0.0198364,0.0265503,0.0161743,0.0265503,0.0219727,0.0436401,0.00640869,0.0231934,0.0161743,-0.0177002,-0.0238037,0.015564,-0.00610352
22,1,0.0244141,0.0244141,0.0341797,0.0231934,0.0170898,0.0283813,0.0204468,0.0134277,0.0158691,0.0131226,-0.0192261,0.027771,0.0289917
22,2,0.0119019,0.0280762,0.0192261,0.0253296,0.0228882,0.0296021,0.0241089,0.0161743,0.0149536,0.00610352,-0.0320435,0.0268555,0.0253296
22,3,0.0308228,0.0335693,0.0198364,0.0314331,0.0152588,0.010376,0.0268555,0.0241089,0.0112915,0.0088501,-0.0482178,0.0265503,0.0390625
22,4,0.0088501,0.0265503,0.0250244,0.0418091,0.00701904,0.0213623,0.0210571,0.0259399,0.0161743,-0.00274658,-0.0244141,0.0793457,0.0457764
23,0,0.012207,0.0115967,0.0231934,0.0247192,0.03479,0.0265503,0.0292969,0.0177002,0.0115967,0,-0.0213623,0.0256348,0.0317383
23,1,0.0158691,0.0286865,0.0299072,0.03479,0.0436401,0.0305176,0.0146484,0.0119019,0.0137329,-0.0314331,-0.0219727,0.0357056,0.017395
23,2,0.0222778,0.0488281,0.00457764,0.043335,0.0161743,0.0296021,0.0262451,0.0204468,0.00946045,0.00335693,-0.0149536,0.00823975,-0.0109863
23,3,-0.00579834,0.0244141,0.0265503,0.0622559,0.0238037,0.0286865,0.0228882,0.0247192,0.0170898,0.0088501,-0.0314331,0.0335693,0.0317383
23,4,0.0283813,0.0308228,0.0201416,0.045166,0.022583,0.0473022,0.0137329,0.0250244,0.00701904,0.000915527,-0.0259399,0.0799561,0.0335693
24,0,0.0134277,0.0402832,0.0396729,0.0195312,0.00732422,0.0289917,0.0164795,0.0210571,0.00793457,0.015564,-0.0177002,0.000915527,0.0360107
24,1,0.00946045,0.0292969,0.0311279,0.0250244,0.0305176,0.0393677,0.0305176,0.0238037,0.0262451,0.015564,-0.0198364,0.027771,0.0387573
24,2,0.0198364,0.027771,0.0488281,0.0262451,0.0198364,0.0158691,0.012207,0.0201416,0.017395,0.0186157,-0.00854492,0.062561,0.00793457
24,3,0.0088501,0.0201416,0.0253296,0.0286865,0.0378418,0.0366211,0.0183105,0.0152588,0.00762939,0.00976562,-0.010376,-0.012207,0.0265503
24,4,0.0253296,0.0219727,0.00793457,0.0213623,0.0393677,-0.000305176,0.0268555,0.0183105,-0.0140381,0.0119019,-0.0158691,-0.0177002,0.0338745
25,0,0.017395,0.0247192,0.0421143,0.0305176,0.0369263,0.00366211,0.0344849,0.0112915,0.0115967,-0.00427246,-0.017395,0.0231934,0.00640869
25,1,0.0137329,0.00549316,0.0241089,0.0289917,0.03479,0.0210571,0.0247192,0.0378418,0.00335693,0.0592041,-0.0128174,0.0296021,0.0357056
25,2,0.0317383,0.0442505,0.0387573,0.0387573,0.0283813,0.0308228,0.0143433,0.0296021,0.0177002,-0.0100708,-0.0149536,0.0119019,0.0247192
25,3,0.0222778,0.0387573,0.00579834,0.0250244,0.0323486,0.0292969,0.0115967,0.0357056,-0.000305176,0.00946045,-0.00793457,0.0216675,0.0354004
25,4,0.0198364,0.0296021,0.0320435,0.0167847,0.0128174,0.039978,0.0146484,0.0158691,0.0195312,0.0115967,-0.0326538,0.00213623,0.0216675
26,0,-0.00762939,0.0442505,0.0280762,0.0595093,0.0210571,0.0338745,0.0192261,0.00518799,-0.00335693,0.00823975,-0.0247192,0.0167847,0.0308228
26,1,0.0112915,0.0250244,0.0146484,0.0158691,0.0256348,0.0140381,0.0180054,0.0317383,0.0100708,0.00640869,0.010376,0.00915527,0.00671387
26,2,0.0210571,0.0134277,0.0265503,0.0210571,0.0183105,0.03479,0.0195312,0.0195312,0.00152588,0.0106812,-0.0198364,-0.00915527,0.0268555
26,3,0.0177002,0.0180054,0.0311279,0.0344849,0.0350952,0.0247192,0.03479,0.017395,0.00854492,0.0262451,0.0146484,0.0222778,0.022583
26,4,0.0189209,0.0234985,0.0286865,0.0415039,0.0268555,0.0350952,0.0387573,0.0180054,0.038147,-0.000610352,-0.0112915,0.0137329,0.03479
27,0,0.0137329,-0.00854492,0.03479,0.0363159,0.0265503,0.0289917,0.0305176,0.0216675,0.00976562,-0.0167847,-0.0189209,0.0216675,0.0411987
27,1,0.0427246,0.0204468,0.0323486,0.0332642,0.0250244,0.0305176,0.015564,0.0186157,0.00213623,0.0195312,-0.0280762,0.0286865,0.0302124
27,2,0.0143433,0.027771,-0.00183105,0.0357056,0.0354004,0.0167847,0.020752,-0.00274658,0.00915527,0.0311279,-0.0192261,0.0302124,0.0341797
27,3,0.0201416,0.0222778,0.0305176,0.0238037,0.0250244,0.0198364,0.0335693,0.0164795,0.0192261,0.0231934,-0.00946045,0.0149536,0.032959
27,4,0.010376,-0.0241089,0.0473022,0.00305176,0.0259399,0.0271606,0.0149536,0.0180054,0.0106812,0.0143433,-0.0213623,0.072937,0.032959
28,0,0.00549316,0.0112915,0.043335,0.0280762,0.0274658,0.0427246,0.032959,0.012207,-0.0125122,-0.0228882,-0.015564,0.0198364,0.0689697
28,1,0.00946045,0.0128174,0.0152588,0.0308228,0.0585938,0.0250244,0.0396729,0.0146484,0.0341797,0.0177002,-0.0296021,0.012207,0.0253296
28,2,0.0195312,0.0146484,0.0308228,0.0262451,0.0234985,0.0253296,0.022583,0.0286865,0.0143433,0.0332642,-0.0216675,0.0256348,-0.0387573
28,3,0.0350952,0.0183105,0.0430298,0.0161743,0.0204468,0.0170898,0.0805664,0.0317383,-0.00427246,0.0405884,-0.0228882,0.0250244,0.0274658
28,4,0.0143433,0.0234985,0.0332642,0.0259399,0.0448608,0.0326538,0.0158691,0.0149536,0.0186157,0.0759888,-0.0411987,0.0268555,0.0723267
29,0,0.0189209,0.0119019,0.0289917,0.0384521,0.032959,0.0305176,0.0320435,0.0244141,0.0131226,0.017395,-0.0219727,0.0219727,0.0244141
29,1,0.0216675,0.00915527,0.0213623,0.0183105,0.0311279,-0.00396729,0.0320435,0.0289917,0.0808716,0.00518799,-0.017395,0.0473022,0.0314331
29,2,0.0222778,0.0115967,0.0149536,0.0302124,0.0375366,0.0170898,0.0317383,0.0323486,0.0146484,0.00183105,-0.0195312,0.0146484,0.0195312
29,3,0.0299072,0.0210571,0.0247192,0.0286865,0.0241089,0.0302124,0.0222778,0.0170898,0.0186157,0.0479126,-0.0170898,0.0152588,0.065918
29,4,0.0149536,0.0137329,0.0216675,0.0256348,0.0201416,0.0415039,0.0378418,0.0167847,0.0192261,0.0296021,-0.00396729,0.0119019,0.0286865
30,0,0.0250244,0.0161743,0.03479,0.0158691,0.0424194,0.0201416,0.0238037,0.0140381,0.0106812,0.0393677,-0.0308228,0.00946045,0.0222778
30,1,0.017395,0.022583,0.00762939,0.0448608,0.0167847,0.0201416,0.0302124,0.027771,0.0210571,0.0274658,-0.0231934,0.022583,0.0146484
30,2,0.00701904,0.0253296,0.0128174,0.0256348,0.0210571,-0.00488281,0.0250244,0.0152588,0.0115967,0.0192261,-0.0149536,0.0448608,0.0228882
30,3,0.0250244,0.0204468,0.0213623,0.043335,0.0393677,0.0137329,0.0366211,-0.0115967,0.0128174,0.038147,-0.00701904,0.0213623,0.0259399
30,4,0.0161743,0.0170898,0.0161743,0.0259399,0.0274658,0.0335693,0.0491333,0.0244141,0.00305176,0.0131226,-0.0204468,0.0241089,0.039978
31,0,0.0134277,0.00823975,0.0222778,0.0497437,0.0320435,0.00946045,0.0543213,0.0125122,0.0415039,0.0167847,-0.0134277,0.0292969,0.0302124
31,1,0.0167847,0.000305176,0.0216675,0.0140381,-0.0106812,0.0332642,0.0344849,0.0259399,0.0149536,0.0271606,0.0262451,0.00579834,0.0195312
31,2,-0.00427246,0.0128174,0.0146484,0.0274658,0.0231934,0.0198364,0.0338745,0.0259399,0.0241089,0.0338745,-0.0149536,0.012207,0.0326538
31,3,0.0247192,0.0244141,0.0289917,0.0253296,0.0247192,0.0186157,0.0308228,0.0631714,-0.0344849,0.0259399,-0.0241089,0.0811768,0.0283813
31,4,0.0152588,0.0100708,0.0204468,0.045166,0.0323486,0.0341797,0.0338745,0.0790405,0.0299072,0.022583,-0.0384521,0.0140381,0.0280762
32,0,0.010376,0.0170898,0.0125122,0.0170898,0.0366211,0.0268555,0.0308228,0.0610352,0.0125122,-0.00854492,-0.0112915,0.0100708,0.0238037
32,1,0.0241089,0.00701904,0.0201416,0.0244141,0.0457764,0.0299072,0.0292969,0.0732422,0.0250244,0.0219727,-0.0195312,0.00610352,0.0289917
32,2,0.00549316,0.0222778,0.00915527,0.0234985,0.0308228,0.0265503,0.03479,0.0375366,0.0253296,0.00732422,-0.010376,0.0088501,0.0305176
32,3,0.0186157,0.0195312,0.00335693,0.0372314,0.0366211,0.0204468,0.0323486,0.0485229,0.0201416,0.00671387,-0.0497437,0.0112915,0.0506592
32,4,0.0140381,-0.00610352,0.0152588,0.0390625,0.0628662,0.0210571,0.0363159,0.0665283,0.0372314,0.0167847,-0.015564,0.027771,0.0341797
33,0,-0.0012207,0.0213623,0.0210571,0.0210571,0.0109863,0.0396729,0.03479,0.132446,0.0299072,0.017395,-0.0158691,0.00701904,0.0210571
33,1,0.0244141,0.0112915,0.00640869,0.0219727,0.0314331,0.0280762,0.0161743,0.145874,0.0320435,0.0149536,-0.00976562,0.0280762,0.0393677
33,2,0.0149536,0.0152588,0.0299072,0.0906372,0.0360107,0.0247192,0.000305176,0.249634,0.0375366,0.0244141,-0.0198364,0.0195312,0.0164795
33,3,0.032959,0.0119019,-0.0305176,0.015564,0.0289917,0.0338745,0.0259399,0.0552368,0.0158691,0.0112915,-0.0177002,0.0112915,0.0762939
33,4,0.0222778,0.015564,0.00823975,0.0283813,0.0256348,0.0186157,0.0317383,0.0268555,0.0140381,0.032959,-0.0427246,0.0140381,0.038147
34,0,0.0241089,0.0125122,0.0137329,0.0219727,0.0189209,0.022583,0.0314331,0.0405884,-0.0137329,0.0238037,-0.017395,-0.0411987,0.010376
34,1,0.0375366,0.010376,0.0204468,0.010376,0.032959,0.0280762,0.0317383,0.00854492,0.0109863,-0.0201416,-0.00854492,0.015564,-0.055542
34,2,0.0161743,0.00244141,0.0289917,-0.000610352,0.0222778,0.0332642,0.0292969,-0.0265503,0.0250244,0.0350952,-0.0119019,0.0204468,0.00305176
34,3,0.0250244,0.0170898,0.0222778,0.0796509,0.0338745,0.0238037,-0.00427246,-0.0296021,0.0152588,0.0286865,-0.00518799,0.0152588,0.0222778
34,4,0.027771,0.00793457,0.0219727,0.0457764,0.0296021,0.0204468,0.0302124,-0.0177002,0.0158691,0.0128174,-0.0210571,0.010376,0.0195312
35,0,0.0317383,0.0143433,0.0216675,0.0314331,0.0213623,0.0292969,0.0314331,-0.0222778,0.0137329,0.0366211,-0.0170898,0.0152588,0.0292969
35,1,0.0106812,-0.0445557,0.0143433,0.017395,0.0283813,0.020752,0.0357056,-0.0222778,0.0299072,0.0164795,-0.0183105,0.0787354,0.0164795
35,2,0.0442505,0.0170898,-0.00610352,0.0292969,0.0256348,0.0442505,0.0317383,-0.00671387,0.0241089,0.0268555,-0.0198364,0.0213623,0.0213623
35,3,0.0109863,0.0177002,0.012207,0.0317383,0.0250244,0.0302124,0.020752,0.000915527,0.0198364,0.00946045,-0.0228882,0.0250244,0.017395
35,4,0.0308228,-0.00152588,0.0241089,0.0262451,0.0167847,0.0238037,-0.000305176,-0.0231934,0.0296021,0.0778198,-0.022583,0.0186157,-0.0112915
36,0,-0.00915527,0.00915527,0.0140381,0.0643921,0.0241089,0.0259399,0.00244141,0.00213623,0.0241089,0.0292969,-0.00976562,0.00610352,0.00946045
36,1,0.017395,-0.000915527,0.0268555,0.0204468,0.0921631,0.0405884,0.0238037,-0.0689697,0.0305176,0.0149536,-0.0341797,0.0195312,0.0280762
36,2,0.0158691,0.0109863,0.0292969,0.0161743,0.0308228,0.0268555,0.0210571,-0.015564,0.000610352,0.0201416,-0.0292969,0.00610352,0.0143433
36,3,-0.00610352,0.0268555,0.0088501,0.0250244,0.0170898,0.0161743,0.0250244,-0.0222778,0.0183105,0.0238037,-0.0204468,0.0234985,0.0231934
36,4,0.0216675,0.0140381,0.0363159,0.0195312,0.0378418,0.0708008,0.0369263,-0.00610352,-0.039978,0.0326538,-0.0106812,0.00823975,0.0250244
37,0,0.012207,-0.00671387,0.012207,0.0152588,0.0283813,0.0338745,0.0140381,-0.0106812,0.0241089,0.0241089,-0.0198364,0.0253296,-0.0238037
37,1,0.0253296,0.012207,0.0238037,0.0152588,0.0408936,0.0430298,0.0421143,-0.000305176,0.00488281,0.0192261,-0.0213623,-0.0469971,0.0186157
37,2,0.0234985,0.0119019,0.0390625,0.0216675,0.0250244,0.0134277,0.0265503,0.0088501,0.0271606,0.0335693,-0.0213623,0.0137329,-0.00457764
37,3,0.0238037,0.00762939,0.0274658,0.0201416,0.0131226,0.0213623,0.0292969,0,0.0204468,0.0228882,-0.0183105,0.0140381,0.0186157
37,4,-0.0286865,0.017395,0.00213623,0.0296021,0.020752,0.0234985,0.045166,0.0186157,0.0308228,0.0335693,-0.0250244,0.00518799,0.0216675
38,0,0.0143433,0.012207,-0.000610352,0.022583,0.0366211,0.0256348,0.0299072,0.00488281,0.0119019,0.0244141,-0.0189209,-0.0283813,0.032959
38,1,-0.027771,0.0170898,0.0112915,0.0115967,0.0152588,0.0314331,0.0985718,0.00823975,0.0296021,0.0430298,-0.0518799,0.0286865,-0.0326538
38,2,0.00213623,0.00579834,0.0256348,0.0292969,0.0140381,0.0357056,0.017395,0.00396729,0.0146484,0.0213623,-0.00701904,0.0195312,0.0149536
38,3,0.0234985,-0.015564,0.010376,0.0100708,0.0314331,0.0372314,0.0268555,-0.00396729,0.0360107,0.0134277,-0.020752,-0.0180054,0.0354004
38,4,0.0177002,0.0576782,0.0247192,0.0247192,0.022583,0.0289917,0.0418091,0.0161743,0.010376,0.0143433,-0.00762939,0.0253296,0.010376
39,0,0.00976562,0.038147,0.0167847,0.0350952,0.027771,0.0286865,0.0332642,0.0201416,0.0213623,0.0366211,-0.0244141,0.010376,0.0213623
39,1,0.0201416,0.0137329,-0.00183105,0.0192261,0.0112915,0.0283813,0.0357056,0.00427246,0.0238037,0.0222778,0.0149536,0.0012207,0.0180054
39,2,-0.00183105,0.0134277,0.00732422,0.00762939,0.0247192,0.0506592,0.0509644,0.0192261,0.045166,0.0497437,-0.0250244,0.0115967,0.0134277
39,3,0.0448608,0.0106812,0.00854492,0.0305176,0.0238037,0.0302124,0.0274658,0.000915527,0.0134277,0.0158691,-0.0167847,0.0161743,0.0161743
39,4,0.0262451,0.0140381,0.0585938,0.0241089,0.0213623,0.0521851,0.0143433,0.015564,0.0299072,-0.00701904,-0.0161743,0.0134277,0.0115967
40,0,0.0167847,0.03479,0.00427246,0.0170898,0.0195312,0.0112915,0.0375366,-0.0326538,0.038147,0.0244141,-0.0180054,0.0424194,0.0259399
40,1,0.0183105,-0.0509644,0.0106812,0.0192261,0.0482178,0.0274658,0.0320435,0.0177002,0.0231934,0.00854492,-0.0222778,0.00976562,0.00823975
40,2,0.0161743,0.0177002,-0.0582886,0.017395,0.0180054,0.027771,0.0418091,0.0393677,0.0195312,0.0164795,-0.0253296,0.0146484,-0.010376
40,3,0.0222778,0.0216675,0.0198364,0.0189209,0.0137329,0.0204468,0.0335693,0.0320435,0.0332642,-0.000305176,-0.0247192,0.0448608,0.0500488
40,4,0.0167847,0.0186157,0.0109863,0.0259399,0.0143433,0.038147,0.0262451,0.0256348,0.0326538,0.0201416,-0.0234985,0.0180054,0.00732422
41,0,0.0302124,0.00579834,0.0158691,-0.0280762,0.020752,0.0289917,0.038147,0.0268555,0.0308228,0.0234985,-0.0152588,0.0201416,0.0167847
41,1,0.0180054,-0.00335693,0.00488281,0.015564,0.032959,0.0158691,0.0335693,-0.0204468,0.043335,0.0198364,-0.0161743,0.0189209,0.0140381
41,2,0.020752,0.0192261,0.012207,-0.0286865,0.0152588,0.0146484,0.0186157,0.00274658,0.0134277,0.0839233,-0.0265503,0.0283813,-0.0274658
41,3,0.0332642,0.00915527,0.0152588,0.00946045,0.0265503,0.017395,0.0335693,0.0201416,0.0195312,0.0302124,-0.0317383,0.010376,0.0238037
41,4,0.022583,0.0152588,-0.0485229,0.0143433,0.0238037,0.027771,0.0360107,0.0177002,0.0234985,0.0216675,-0.0262451,0.0247192,0.0134277
42,0,0.0228882,0.0158691,0.0109863,0.0283813,0.0164795,0.0698853,0.0402832,0.0262451,0.039978,0.0180054,-0.0268555,0.0244141,0.0167847
42,1,0.0274658,0.00274658,0.0140381,0.0146484,0.0216675,0.0201416,0.0244141,0.027771,0.0292969,0.0592041,-0.0286865,0.017395,0.0335693
42,2,0.0228882,0.00946045,-0.00335693,0.0128174,0.0341797,0.0143433,0.0234985,0.010376,0.027771,0.0299072,-0.0286865,0.0204468,-0.00396729
42,3,0.0158691,0.0140381,0.00396729,0.0201416,0.015564,0.0402832,0.0213623,0.0186157,0.0445557,0.0286865,-0.0247192,0.062561,0.00427246
42,4,0.015564,0.0115967,0.0201416,0.00976562,0.0161743,0.0396729,0.0424194,0.0323486,0.0387573,0.0354004,-0.0396729,0.0305176,0.0219727
43,0,0.0299072,0.0167847,-0.0167847,0.0228882,0.0137329,0.0228882,0.0183105,0.022583,0.0222778,0.00518799,-0.0241089,0.0192261,0.0308228
43,1,0.0192261,0.00549316,0.0323486,0.00335693,0.0213623,-0.0262451,0.0137329,0.022583,-0.0384521,0.0192261,-0.0170898,-0.00152588,0.0146484
43,2,0.0213623,0.0012207,0.00823975,0.00518799,0.0186157,0.0204468,0.0262451,0.0500488,0.0415039,0.0323486,-0.0372314,0.0354004,0.00671387
43,3,0.0274658,0.0213623,0.0268555,0.00396729,-0.0134277,0.027771,0.0219727,-0.00854492,0.0387573,0.0161743,0.00427246,0.0253296,0.0198364
43,4,0.0149536,0.0109863,0.00854492,0.0128174,0.00274658,0.0332642,0.022583,0.0152588,0.0354004,0.0186157,-0.0265503,-0.0231934,0.0262451
44,0,0.0488281,0.00793457,0.00762939,-0.0497437,0.0186157,0.0320435,-0.00518799,0.0387573,0.0195312,0.0463867,-0.00610352,0.0247192,0.00640869
44,1,0.0436401,0.012207,0.00701904,0.0274658,0.00946045,0.0292969,0.00518799,-0.00335693,-0.0088501,0.0238037,-0.0213623,0.0769043,0.0350952
44,2,0.0256348,0.0201416,0.00793457,0.00701904,0.0119019,0.0286865,0.0164795,0.00793457,0.057373,0.0268555,-0.0234985,0.0152588,0.0515747
44,3,0.0524902,0.0192261,0.0247192,0.0146484,0.00427246,0.0219727,0.0183105,-0.0143433,0.0323486,0.0198364,-0.00518799,0.00640869,0.0149536
44,4,0.0112915,0.0140381,0.0216675,0.00732422,0.0228882,0.0115967,0.0244141,0.00946045,0.0299072,0.0280762,-0.0259399,0.0180054,0.0192261
45,0,0.022583,0.0161743,0.00732422,0.0256348,0.0158691,0.00152588,0.0201416,0.00701904,0.0115967,0.0418091,-0.0366211,0.0323486,0.0161743
45,1,0.0210571,-0.027771,0,0.0149536,0.067749,0.0250244,0.0350952,0.00671387,0.0292969,0.0350952,-0.0378418,0.0167847,0.0149536
45,2,0.0219727,0.0256348,0.000915527,0.00183105,0,0.0827026,0.0326538,0.0125122,0.00732422,0.0427246,-0.0210571,0.0152588,-0.00854492
45,3,0.0134277,0.0250244,0.0112915,0.022583,-0.0262451,0.0344849,0.0228882,0.022583,0.0216675,0.0204468,-0.020752,0.0100708,0.0170898
45,4,-0.0231934,0.0323486,0.00793457,0.017395,0.0296021,0.0216675,0.0518799,0.0253296,0.0262451,0.0283813,-0.065918,0.0317383,0.0164795
46,0,-0.0134277,0.0241089,0.000610352,0.0158691,0.00274658,0.0228882,0.0149536,0.0216675,0.0299072,0.0088501,-0.0100708,0.0280762,0.0131226
46,1,0.0167847,0.0152588,0.00915527,-0.0189209,0.00152588,0.0115967,0.0247192,0.0231934,0.0350952,0.0289917,-0.0296021,0.0106812,0.0195312
46,2,0.0238037,0.0222778,0.0164795,0.0292969,0.0125122,0.0134277,0.0192261,0.0250244,0.032959,0.015564,-0.0262451,0.0183105,0.0149536
46,3,0.0149536,0.0244141,0.0268555,0.0012207,0.0231934,0.0143433,0.0164795,0.0283813,0.0317383,0.0366211,-0.0189209,0.0143433,0.00915527
46,4,0.0201416,0.0469971,0.00366211,0.0259399,0.0112915,0.0143433,-0.0219727,0.0256348,0.0427246,-0.0314331,-0.0405884,-0.0109863,-0.0357056
47,0,0.0210571,0.00671387,0.0152588,0.0164795,0.0610352,0.0164795,0.015564,0.0314331,0.0259399,0.0363159,-0.00152588,0.00823975,0.0152588
47,1,-0.0387573,0.0250244,0.0186157,0.0158691,0.0140381,0.0195312,0.0274658,0.00915527,0.0228882,0.0396729,-0.0308228,0.0189209,0.0088501
47,2,0.039978,0.0186157,0.0109863,-0.0500488,0.022583,0.00549316,-0.0283813,0.0262451,0.0286865,-0.00946045,0.0125122,0.0204468,-0.0524902
47,3,0.0167847,0.0195312,0.0256348,0.00244141,0.0170898,0.0247192,0.0192261,0.0354004,0.0308228,0.0317383,-0.0137329,0.0195312,0.0222778
47,4,0.022583,0.0216675,0.0210571,0.0106812,0.0268555,0.0238037,0.0323486,0.0320435,0.0320435,0.0143433,-0.0259399,0.0192261,0.0317383
48,0,0.0317383,0.017395,0.0204468,0.0088501,0.0106812,0.0131226,0.0219727,0.0317383,0.0253296,0.088501,-0.0320435,0.0216675,-0.00946045
48,1,0.0106812,-0.0314331,0.0164795,0.0189209,0.067749,0.0149536,0.0146484,-0.00579834,0.015564,0.03479,-0.0335693,0.0280762,0.00823975
48,2,0.0265503,0.0201416,0.0292969,0.0268555,0.0149536,0.0125122,0.0396729,0.0299072,0.0280762,0.00152588,-0.0247192,0.0274658,-0.0299072
48,3,0.0311279,0.0460815,0.0140381,0.0152588,0.0506592,0.010376,0.017395,0.0161743,0.0341797,0.0256348,-0.0177002,0.00732422,0.00823975
48,4,0.0479126,0.0222778,0.0250244,-0.00610352,0.0119019,0.0231934,0.0250244,0.0283813,0.00701904,0.0222778,-0.0305176,0.0671387,0.00366211
49,0,0.0375366,0.0210571,0.0195312,0.0186157,0.00152588,0.0256348,0.0183105,0.0332642,0.027771,0.0296021,-0.0238037,-0.0250244,0.00701904
49,1,0.0366211,0.0344849,0.0128174,0.015564,0.0344849,0.0192261,0.0167847,0.017395,0.0268555,0.0128174,-0.0137329,0.0308228,0.0198364
49,2,0.0177002,0.0186157,0.00793457,0.00457764,0.00305176,0.00793457,0.0411987,0.0372314,0.0222778,0.0332642,-0.0384521,0.0268555,0.0595093
49,3,0.00671387,0.00152588,0.0210571,0.0576782,0.00305176,0.0317383,0.0204468,0.0405884,0.0366211,0.0137329,-0.0189209,0.0088501,0.00366211
49,4,0.0247192,0.0283813,-0.0143433,0.0289917,0.017395,-0.0234985,0.0146484,0.015564,-0.0152588,0.0302124,-0.00976562,0.0213623,0.0164795
50,0,0.0320435,-0.0241089,0.0131226,0.010376,0.0265503,0.0161743,0.0125122,0.0354004,0.0378418,0.03479,-0.0341797,0.0335693,0.0405884
50,1,0.0415039,0.0256348,0.0314331,0.0137329,0.017395,0.0222778,0.0311279,0.0256348,0.038147,0.0274658,-0.0195312,0.00854492,0.0125122
50,2,0.0164795,0.0109863,0.0244141,0.0500488,0.00823975,0.0195312,0.0311279,0.03479,0.0354004,0.0241089,-0.0228882,0.0158691,0.0137329
50,3,0.0308228,0.0210571,0.0326538,0.0137329,0.0128174,0.0772095,0.0119019,0.0250244,0.055542,0.0152588,-0.0201416,0.0634766,0.0198364
50,4,0.050354,0.0213623,0.0204468,0.0152588,0.0201416,0.0088501,-0.000915527,0.0335693,0.0415039,0.0198364,-0.0271606,0.0289917,0.0170898
51,0,0.0189209,0.0198364,0.0119019,0.0143433,0.057373,0.015564,0.0308228,0.0753784,0.0259399,0.0149536,-0.0289917,0.0228882,0.0088501
51,1,0.039978,0.0338745,-0.010376,0.0204468,0.0259399,0.0140381,0.0143433,0.0192261,0.0473022,0.0320435,-0.0302124,0.0350952,0.0393677
51,2,0.0509644,0.0268555,0.0305176,0.00335693,0.0152588,0.0152588,0.022583,0.0415039,0.0320435,0.0119019,-0.0427246,-0.0222778,0.0289917
51,3,0.0344849,0.0579834,0.0146484,0.0158691,0.0619507,0.022583,0.0219727,0.0787354,0.0393677,0.0134277,-0.0375366,0.0338745,0.00946045
51,4,0.0314331,0,0.0292969,0.00976562,-0.00854492,0.015564,0.010376,0.0421143,0.0158691,0.032959,-0.0305176,0.010376,0.0262451
52,0,0.0369263,0.0244141,0.0231934,0.022583,0.0180054,0,0.00762939,0.0427246,0.0146484,0.0296021,-0.0396729,0.0317383,0.0234985
52,1,0.0308228,0.0244141,0.038147,0.0186157,0.00152588,-0.0106812,0.0292969,-0.0204468,0.03479,0.0274658,-0.0314331,0.0332642,0.0170898
52,2,0.03479,0.0219727,-0.00976562,0.022583,0.010376,0.0311279,0.0241089,0.0198364,0.0634766,0.0286865,-0.0341797,0.0317383,0.012207
52,3,0.0222778,0.0280762,0.0210571,0.0415039,0.00671387,0.00915527,0.0149536,-0.0158691,0.0241089,0.0265503,-0.0296021,0.0180054,0.0213623
52,4,0.0323486,0.027771,0.0338745,0.00366211,0.0100708,0.0567627,0.0228882,0.0308228,0.0836182,0.03479,-0.0445557,0.0222778,0.0311279
53,0,0.0357056,0.0115967,0.0302124,0.0128174,0.00427246,-0.0109863,0.0726318,0.0601196,0.0152588,-0.0112915,-0.0531006,0.0384521,0.0170898
53,1,0.0439453,0.0271606,0.0216675,0.00213623,0.0259399,0.0170898,0.0238037,0.0219727,0.0189209,0.0326538,-0.0372314,0.0204468,-0.0219727
53,2,0.0286865,0.00854492,0.0164795,0.0164795,0.0445557,0.0210571,0.010376,0.0289917,0.0146484,0.0265503,-0.0360107,0.0170898,0.0146484
53,3,0.0268555,0.0424194,0.0146484,0.0183105,0.0216675,0.017395,0.0158691,0.0424194,0.022583,0.0372314,-0.015564,0.0286865,0.0305176
53,4,0.0320435,0.0360107,0.0201416,0.0213623,0.0177002,0.00976562,0.012207,0.0299072,0.0210571,0.0170898,-0.0372314,0.0848389,0.0305176
54,0,-0.00518799,0.0378418,0.0152588,-0.0286865,0.0228882,0.0183105,0.0253296,0.0140381,0.0265503,0.0534058,-0.0384521,0.0241089,0.0228882
54,1,0.0158691,0.0280762,-0.0106812,0.0201416,0.0152588,0.0289917,0.0268555,0.0164795,0.0656128,0.0286865,-0.015564,0.00732422,0.0186157
54,2,0.0363159,0.022583,0.0320435,0.0146484,0.0320435,0.0289917,0.0140381,0.0231934,0.0128174,0.0793457,-0.0323486,0.0332642,-0.0280762
54,3,0.0219727,0.0134277,0.0195312,0.0177002,0.00732422,0.00549316,-0.010376,0.0268555,0.0408936,-0.00183105,-0.0268555,0.0442505,0.0299072
54,4,0.0137329,0.0265503,0.0192261,0.0354004,0.0137329,0.00518799,0.0161743,0.00946045,0.0286865,-0.0302124,-0.0305176,0.0186157,0.0274658
55,0,0.0088501,0.0219727,0.039978,-0.0354004,0.00549316,0.00549316,-0.0210571,0.017395,0.0289917,-0.0125122,-0.0283813,0.0387573,0.00762939
55,1,0.027771,0.0341797,0.0543213,0.0109863,0.00335693,0.0689697,-0.00152588,0.0430298,0.0643921,0.0360107,-0.0299072,0.0311279,0.0274658
55,2,0.0161743,0.0128174,0.0204468,0.0106812,0.0106812,0.0146484,0.0186157,0.0564575,0.0280762,0.0234985,-0.032959,0.0271606,0.0256348
55,3,0.0494385,0.0387573,0.0405884,0.0189209,0.0253296,-0.00610352,0.0222778,0.0262451,0.00335693,-0.0140381,-0.0436401,0.0445557,-0.0189209
55,4,0.0299072,0.0247192,0.032959,0.012207,0.00305176,0.0195312,0.010376,0.0250244,0.0341797,0.0247192,-0.0402832,0.0354004,0.0338745
56,0,0.0268555,0.0344849,0.00976562,-0.00518799,0.0100708,0.0289917,0.0262451,0.0201416,0.0543213,0.0509644,-0.0238037,0.0396729,0.0335693
56,1,0.027771,0.0308228,0.0128174,0.0170898,0.0134277,0.0204468,0.00640869,0.0201416,0.0701904,0.00366211,-0.0271606,0.0256348,0.0408936
56,2,0.0292969,0.027771,-0.0112915,0.0314331,0.0125122,-0.0216675,0.0299072,0.0100708,-0.0115967,0.0259399,-0.0137329,0.0201416,0.0375366
56,3,-0.0186157,0.0314331,0.03479,-0.0012207,0.0228882,0.0137329,0.062561,0.0622559,0.0268555,0.0360107,-0.0357056,0.0271606,0.0289917
56,4,0.0372314,0.0262451,0.0332642,0.0164795,0.0134277,0.00946045,0.0149536,0.72113,0.0778198,0.0350952,-0.0317383,0.0265503,0.0372314
57,0,0.0445557,0.0387573,0.0286865,0.0186157,0.0115967,0.00915527,0.010376,1.01166,0.0195312,0.0280762,-0.0384521,0.0314331,0.0317383
57,1,0.0292969,0.0457764,0.0238037,0.0320435,-0.0195312,0.0152588,0.0231934,1.01654,0.0195312,0.0149536,-0.0271606,0.0357056,0.0326538
57,2,0.0344849,0.0125122,0.0375366,0.0213623,0.0189209,0.0143433,0.00305176,1.01837,0.0131226,0.0143433,-0.0387573,0.0186157,0.0387573
57,3,0.0323486,0.0262451,-0.0152588,0.0140381,0.012207,0.0579834,0.0274658,0.957031,0.00976562,0.0146484,-0.0292969,0.0292969,0.0302124
57,4,0.0271606,0.0302124,0.020752,0.0320435,0.0247192,-0.00396729,0.0170898,0.821533,0.0408936,0.0012207,-0.0363159,0.0357056,0.0311279
58,0,0.0241089,0.0198364,0.0296021,0.0231934,0.0259399,0.0268555,0.0143433,0.688782,0.00457764,0.0189209,-0.038147,0.0244141,0.0286865
58,1,0.0485229,0.0888062,0.0369263,0.0286865,0.0134277,0.0326538,0.0222778,0.541077,0.0201416,0.0253296,-0.03479,0.0344849,0.0387573
58,2,-0.017395,0.0289917,0.017395,-0.00244141,0.0183105,0.020752,0.0738525,0.584106,0.00915527,0.065918,-0.0610352,0.0344849,-0.0265503
58,3,0.0283813,0.0372314,0.0283813,0.0274658,0.0314331,0.0274658,0.0177002,0.610962,0.0350952,0.0115967,0.0012207,0.012207,0.0308228
58,4,0.0323486,0.0271606,0.0259399,0.0238037,0.0369263,0.0289917,0.0204468,0.559692,0.0210571,0.0247192,-0.0668335,0.0317383,0.0231934
59,0,0.020752,-0.012207,0.0268555,0.0369263,-0.0164795,0.0189209,0.00671387,0.501099,0.0146484,0.0134277,-0.0286865,0.0335693,0.0360107
59,1,0.0213623,-0.0534058,0.0317383,0.0128174,-0.032959,0.0216675,0.00946045,0.543823,0.022583,0.0134277,-0.0341797,0.0369263,0.0311279
59,2,0.093689,0.0332642,0.027771,0.0860596,0.017395,0.0106812,0.00549316,0.523682,0.0125122,0.00518799,-0.027771,0.0286865,0.0360107
59,3,0.0314331,0.0378418,0.0289917,0.027771,0.0234985,-0.00518799,0.0140381,-0.445862,0.022583,-0.00152588,-0.0256348,0.0363159,0.00640869
59,4,0.0256348,0.0192261,0.043335,0.0317383,0.0238037,0.00793457,0.010376,-0.380859,0.00671387,0.017395,-0.0238037,0.0231934,0.027771
60,0,0.0109863,0.0180054,0.0262451,0.0189209,0.0256348,0.0198364,0.00518799,-0.137329,0.0286865,0.00946045,-0.0201416,0.0299072,0.0320435
60,1,0.0216675,0.027771,0.0421143,0.0283813,0.0109863,0.0430298,0.022583,0.18158,0.00457764,0.027771,-0.0161743,0.0302124,0.0439453
60,2,0.0283813,0.012207,0.0119019,0.0823975,0.0494385,0.0143433,0.0482178,0.32959,0.020752,0.0119019,-0.0314331,0.0335693,0.032959
60,3,-0.00457764,0.0244141,0.0253296,0.0488281,0.0112915,0.022583,0.0323486,0.389709,0.0158691,0.00213623,-0.0360107,0.0317383,0.0354004
60,4,0.0231934,0.0137329,0.010376,0.0115967,0.0292969,0.0366211,0.0256348,0.333252,0.00579834,0.0311279,-0.0192261,0.0369263,0.0378418
61,0,0.0332642,0.043335,0.0326538,0.0134277,0.00701904,0.0228882,-0.0137329,0.272522,0.00946045,-0.0314331,-0.045166,0.0250244,-0.0274658
61,1,0.0418091,-0.0100708,0.0274658,0.0350952,0.0164795,0.0161743,0.0149536,0.249329,0.00305176,0.0357056,-0.0466919,0.0534058,0.0543213
61,2,0.0271606,0.0402832,0.0213623,0.022583,0.0164795,0.00579834,0.0134277,0.241394,0.0201416,0.0280762,-0.0311279,0.0463867,0.0378418
61,3,0.0292969,0.0320435,0.00610352,0.0177002,0.0204468,0.0216675,0.0234985,0.249634,-0.000305176,0.0308228,-0.039978,0.0427246,0.0280762
61,4,0.071106,0.0268555,0.0271606,0.00244141,0.00335693,0.0213623,-0.00457764,0.240784,0.00915527,0.0326538,-0.0326538,0.0369263,0.0390625
62,0,0.0302124,0.0210571,0.0201416,0.0793457,0.0219727,0.0109863,-0.0259399,0.232544,0.0106812,0.03479,-0.0238037,0.065918,0.0344849
62,1,0.0231934,0.0238037,0.0250244,0.0149536,0.0415039,0.0268555,0.0201416,0.172729,0.0137329,0.0372314,-0.050354,0.0369263,0.0280762
62,2,0.0256348,0.0177002,0.0494385,0.0305176,0.020752,0.078125,0.0259399,-0.760193,-0.0387573,0.0457764,-0.0228882,0.0524902,0.0125122
62,3,0.0375366,0.015564,0.0198364,0.0222778,0.0189209,0.00762939,0.0201416,-0.72876,0.0137329,0.0421143,-0.0311279,0.0396729,0.0375366
62,4,0.0134277,0.0195312,0.0302124,0.0204468,0.0244141,0.00579834,0.0415039,-0.690918,-0.0088501,0.0540161,-0.0189209,0.0183105,0.0341797
63,0,0.0228882,0.0326538,0.065918,0.0186157,0.0213623,0.0296021,0.0228882,-0.63385,0.000915527,0.0479126,-0.0259399,0.0247192,0.00152588
63,1,0.0234985,0.0292969,0.0115967,0.0231934,0.000610352,-0.00518799,0.0012207,-0.612793,0.0326538,0.039978,-0.0170898,0.0271606,0.0250244
63,2,0.0149536,0.032959,-0.0170898,0.0402832,0.0247192,-0.0387573,0.0268555,-0.570984,-0.0140381,0.0558472,-0.0311279,0.00823975,0.0283813
63,3,0.0164795,0.0759888,0.0131226,0.0341797,0.0204468,0.00732422,0.0238037,-0.548096,0.022583,0.0488281,-0.0268555,0.0335693,0.0210571
63,4,0.0299072,0.0320435,0.0314331,0.0286865,0.0137329,0.0180054,0.0231934,-0.50354,0.0280762,0.050354,-0.022583,0.0286865,0.0296021
64,0,0.017395,0.0289917,0.0375366,0.0341797,0.0241089,-0.0119019,0.017395,-0.465088,0.0238037,0.0531006,-0.0244141,0.0616455,0.0192261
64,1,0.020752,0.0271606,0.0445557,0.0357056,0.0299072,0.027771,0.0296021,-0.420227,0.00518799,0.0540161,-0.0198364,0.0256348,0.0326538
64,2,0.0268555,0.0250244,0.0177002,0.0323486,0.0195312,0.0180054,0.0271606,-0.39917,0.0204468,0.0585938,-0.0360107,0.0180054,0.022583
64,3,0.0189209,-0.0332642,0.0292969,0.0537109,0.0250244,0.012207,0.0115967,-0.361023,0.0234985,0.0469971,-0.0286865,0.00274658,0.0317383
64,4,0.0247192,0.00976562,0.00823975,0.0323486,0.0335693,0.0140381,0.0378418,-0.332031,0.038147,0.0552368,-0.0262451,0.0247192,0.032959
65,0,0.022583,0.0262451,0.0354004,0.0396729,0.0338745,0.0314331,0.0241089,-0.307007,0.0180054,0.0579834,-0.00793457,0.0418091,0.0335693
65,1,0.0338745,0.0195312,0.045166,0.0201416,0.0302124,0.012207,0.00701904,-0.27832,0.0234985,0.0720215,-0.0268555,0.0360107,0.0320435
65,2,0.0326538,0.0323486,0.022583,0.0210571,0.0180054,0.0183105,0.00854492,-0.259094,0.0198364,0.101013,-0.0317383,0.0363159,0.0482178
65,3,0.0204468,0.0378418,0.0231934,0.0189209,0.0247192,0.0219727,0.0195312,-0.231628,0.0231934,0.0726318,-0.0201416,0.0418091,0.0219727
65,4,0.0213623,0.0244141,0.00976562,0.0231934,0.0161743,0.0253296,0.0259399,-0.228271,0.0222778,0.0521851,-0.017395,0.0335693,0.0363159
66,0,0.0314331,0.0952148,0.0253296,0.0201416,-0.0357056,0.0177002,0.0119019,-0.177307,0.0204468,0.0418091,-0.0308228,0.017395,0.0466919
66,1,0.0210571,0.0805664,0.0268555,0.0271606,0.00213623,0.0183105,0.0177002,-0.175171,0.0299072,0.0466919,-0.0213623,0.0384521,0.0289917
66,2,0.0204468,0.0177002,0.0369263,0.0338745,0.0360107,-0.0286865,0.0262451,-0.161133,0.0137329,0.0531006,-0.0296021,0.0146484,0.0344849
66,3,0.0183105,0.0256348,0.022583,0.0350952,0.0314331,0.0195312,0.0283813,-0.153198,0.012207,0.0674438,-0.0241089,0.0234985,0.0268555
66,4,0.0360107,0.032959,0.010376,0.0296021,0.0198364,0.0411987,0.0134277,-0.129395,0.017395,0.039978,-0.0250244,0.0357056,0.032959
67,0,0.0326538,0.032959,0.0201416,0.071106,0.0238037,0.0167847,0.0494385,-0.13092,0.0152588,0.0445557,-0.0088501,0.0125122,0.0320435
67,1,0.0289917,0.0250244,0.0369263,0.0262451,0.0387573,0.0228882,0.0088501,-0.116577,0.0189209,0.0238037,-0.0222778,0.0308228,0.0393677
67,2,-0.0143433,0.0354004,0,-0.00457764,0.0259399,0.0421143,0.0448608,-0.102539,0.0204468,0.0601196,-0.0201416,0.0292969,0.0387573
67,3,0.0234985,0.0241089,0.0292969,0.0219727,0.0326538,0.0201416,0.0210571,-0.0866699,0.00427246,-0.000305176,-0.0131226,0.0128174,0.0271606
67,4,0.0552368,0.0143433,0.00457764,0.0314331,0.0308228,0.0286865,0.0125122,-0.0799561,-0.00427246,0.00244141,-0.0210571,0.0250244,0.0259399
68,0,0.0222778,0.0396729,0.0216675,0.0286865,0.0302124,0.0161743,0.0183105,-0.085144,0.0317383,0.017395,-0.0241089,0.0268555,0.0369263
68,1,0.0314331,0.0274658,0.0271606,0.0314331,0.0088501,0.0180054,0.0210571,-0.0753784,0.0134277,-0.0531006,-0.0341797,0.0167847,-0.00854492
68,2,0.0363159,0.0259399,0.0222778,0.0372314,0.00549316,0.0146484,0.0238037,-0.119019,0.00823975,0.0088501,-0.0134277,0.0183105,0.0317383
68,3,0.0231934,0.0125122,0.0164795,0.0180054,0.0222778,-0.0137329,0.0323486,-0.0680542,-0.020752,0.00152588,-0.0128174,-0.00305176,0.0387573
68,4,0.0167847,0.0289917,0.0292969,0.0369263,0.000915527,0.020752,0.00610352,-0.0714111,0.0128174,0.0335693,-0.0170898,0.00671387,0.0601196
69,0,0.0268555,0.0180054,0.0137329,0.0592041,0.0164795,0.0201416,0.0378418,-0.0701904,0.0131226,-0.0149536,-0.0146484,0.0189209,0.0372314
69,1,0.0262451,0.0262451,0.0479126,0.0158691,0.0350952,0.0256348,0.0134277,-0.0750732,0.00946045,0.000305176,-0.0253296,0.0231934,0.0372314
69,2,0.0280762,0.0158691,0.0201416,0.0411987,0.0161743,0.0332642,0.0170898,-0.065918,-0.00671387,-0.0100708,-0.0311279,0.0506592,0.0210571
69,3,0.00518799,0.0311279,0.0222778,0.0442505,0.0424194,0.0140381,0.0280762,-0.0741577,0.00915527,-0.0134277,0.0231934,0.0262451,0.0231934
69,4,0.0302124,0.0170898,0.0354004,0.0448608,0.0253296,0.0186157,0.0219727,-0.0628662,0.00396729,-0.00488281,-0.0228882,-0.0213623,0.0500488
70,0,0.0137329,0.00274658,0.0177002,0.0299072,0.0375366,0.0231934,0.027771,-0.0634766,0.0170898,-0.00701904,0.00793457,0.00854492,0.0320435
70,1,0.00488281,0.0195312,0.0152588,0.0436401,0.03479,0.0564575,0.0259399,-0.0558472,0.038147,-0.00366211,-0.0186157,-0.0286865,0.0250244
70,2,0.0222778,0.0186157,-0.00854492,0.0350952,0.0292969,0.0195312,0.0250244,-0.0598145,0.00518799,0,-0.017395,0.0177002,-0.00488281
70,3,0.0759888,0.0253296,0.017395,-0.0152588,0.0317383,0.0283813,0.0280762,-0.0427246,0.00854492,-0.00183105,-0.020752,0.03479,0.0152588
70,4,0.0204468,0.0204468,0.032959,0.0344849,-0.00701904,0.0415039,0.0195312,0.0509644,0.0219727,-0.00427246,-0.0192261,0.0268555,0.0195312
71,0,0.0357056,0.0259399,0.0134277,0.0393677,0.0320435,0.0363159,0.0189209,0.0161743,0.00549316,-0.039978,-0.0125122,0.0204468,0.0534058
71,1,0.0234985,0.050354,0.0265503,0.0238037,0.050354,0.0256348,0.0149536,0.0170898,0.0167847,-0.0180054,-0.0164795,0.00183105,0.017395
71,2,0.0253296,0.0302124,0.0195312,0.0335693,0.0280762,0.0390625,0.0158691,0.0143433,-0.0384521,-0.00671387,-0.00396729,0.0106812,0.0204468
71,3,0.0241089,0.0415039,0.022583,0.0250244,0.0115967,0.0289917,0.015564,-0.0488281,0.0128174,-0.0286865,-0.0170898,0.0292969,0.0186157
71,4,0.0308228,0.00396729,0.0326538,0.0369263,0.0473022,0.0259399,0.0320435,0.0128174,0.0100708,0.00274658,-0.0256348,-0.00427246,0.0158691
72,0,-0.043335,0.0134277,0.0268555,0.0357056,0.0125122,0.010376,0.0167847,0.00396729,0.00579834,0.00305176,-0.0286865,0.0143433,0.0158691
72,1,0.015564,0.0106812,0.020752,0.0421143,0.0344849,0.0311279,0.0668335,0.00213623,0.0146484,0.0134277,-0.0128174,0.0164795,0.0308228
72,2,0.022583,0.0112915,0.00854492,0.0259399,0.0250244,0.0204468,0.0167847,0.00305176,0.0241089,-0.000305176,-0.0204468,0.0149536,0.0296021
72,3,0.0488281,0.017395,0.0750732,0.0344849,0.0286865,0.0460815,0.0335693,0.0430298,-0.0396729,0.00671387,-0.0262451,0.0106812,0.0180054
72,4,0.0198364,0.0183105,0.0216675,0.012207,0.0369263,0.0259399,-0.0338745,0.0238037,0.00305176,-0.00976562,-0.0201416,0.0100708,0.00579834
73,0,0.0244141,0.00488281,0.0320435,0.03479,0.0372314,0.0326538,0.0326538,0.0137329,-0.0137329,-0.0149536,-0.0152588,-0.0012207,0.0424194
73,1,-0.0271606,0.032959,0.0109863,0.0366211,0.0463867,0.0137329,0.0262451,0.0256348,0.00701904,0.00274658,-0.0274658,-0.00946045,0.0170898
73,2,0.0128174,0.0195312,0.0344849,0.0250244,0.0299072,0.0369263,0.0415039,0.0195312,0.0204468,-0.000915527,0.0125122,0.00152588,-0.00427246
73,3,0.00335693,0.0106812,0.017395,0.0195312,0.0372314,0.0183105,0.0384521,0.0262451,0.0204468,-0.0326538,-0.0265503,0.0411987,0.0180054
73,4,0.0454712,0.0259399,0.0280762,0.0234985,0.0384521,0.022583,0.0170898,0.0354004,0.0241089,0.00946045,-0.0314331,0.0231934,0.0314331
74,0,0.0231934,0.0219727,0.0201416,0.0317383,0.0302124,0.0393677,0.0189209,0.0341797,0.00762939,-0.0189209,-0.010376,0.0180054,0.00152588
74,1,0.0170898,0.0299072,0.0231934,0.0375366,0.0375366,0.0341797,0.0317383,0.0283813,0.00305176,-0.00183105,-0.0268555,0.0265503,0.0167847
74,2,0.0445557,0.0134277,0.0228882,0.0497437,0.0405884,0.0216675,0.0228882,0.0421143,0.0152588,-0.0561523,-0.0213623,0.012207,0.0701904
74,3,-0.0274658,0.0311279,0.0234985,0.0308228,0.0582886,0.017395,0.032959,0.0396729,0.0238037,-0.00671387,-0.0152588,0.0201416,0.0469971
74,4,0.0213623,-0.045166,0.0244141,0.0231934,0.0384521,0.0418091,0.0274658,0.0363159,0.0152588,0.00793457,-0.0112915,0.0100708,0.0265503
75,0,0.0192261,0.0088501,0.0375366,0.0183105,0.0363159,0.0375366,0.0292969,0.0216675,-0.0286865,0.00335693,-0.012207,0.0750732,0.0210571
75,1,0.00762939,0.0158691,0.0161743,0.0244141,0.0228882,0.0299072,0.03479,0.0396729,0.00671387,-0.00305176,-0.00274658,0.010376,0.0137329
75,2,0.0167847,0.0320435,0.0524902,0.0186157,0.0164795,0.0186157,0.0299072,0.0262451,0.0228882,0.00335693,-0.00610352,0.017395,0.0250244
75,3,0.00762939,0.00793457,0.0299072,0.0515747,0.0408936,0.0198364,0.0305176,0.0112915,0.0167847,0.00976562,-0.00152588,0.00976562,0.0161743
75,4,0.0268555,0.0180054,0.0698853,0.0283813,0.0360107,0.00274658,0.0393677,0.0219727,0,0.00823975,-0.0115967,0.00305176,0.00244141
76,0,0.015564,0.0384521,0.00946045,0.0250244,0.0299072,0.0323486,0.0302124,0.0323486,0.0198364,0.000305176,-0.0106812,-0.000915527,0.0195312
76,1,0.000915527,0.0189209,0.0161743,0.0372314,0.0210571,0.0274658,0.0280762,0.0201416,0.0180054,0.00518799,-0.0088501,-0.000305176,0.0189209
76,2,0.017395,-0.0234985,0.0180054,0.0320435,-0.0146484,0.0366211,0.0302124,0.0167847,0.0158691,0.0137329,-0.0201416,0.00793457,-0.00671387
76,3,0.0210571,0.0228882,0.0332642,0.0238037,0.0186157,0.085144,0.0286865,0.0341797,0.0775146,0.00976562,-0.0271606,0.0488281,0.0250244
76,4,0.039978,0.00762939,0.0271606,0.00915527,0.0253296,0.0125122,0.0244141,0.045166,0.0186157,0.0222778,-0.0115967,0.0143433,0.0186157
77,0,0.00915527,0.0244141,0.0119019,0.0250244,0.0265503,0.0326538,0.0210571,0.0540161,0.00946045,-0.00427246,-0.020752,0.00427246,0.0296021
77,1,0.0167847,0.0244141,0.00854492,0.032959,0.0247192,0.00335693,0.0332642,0.0241089,0.015564,0.00457764,-0.0109863,-0.0149536,0.00854492
77,2,0.0140381,0.0152588,0.00976562,0.0280762,0.0216675,0.0296021,0.0265503,0.038147,0.0262451,0.0146484,-0.00976562,0.0238037,0.0244141
77,3,0.0167847,0.0201416,-0.00701904,0.0274658,-0.0100708,0.012207,0.0299072,-0.0234985,-0.00335693,0.00915527,-0.0280762,-0.0100708,0.0305176
77,4,0.00427246,0.00701904,0.0222778,0.0274658,0.0479126,0.0421143,0.0372314,0.0183105,0.0189209,0.0134277,-0.0292969,0.0274658,0.0262451
78,0,-0.0204468,0.0125122,0.0128174,-0.00366211,0.0262451,0.0341797,0.039978,0.0320435,0.00732422,0.00793457,-0.010376,0.0106812,0.00823975
78,1,0.0158691,0.0222778,0.0311279,0.0231934,0.0192261,0.0289917,0.0271606,0.00732422,0.0189209,0.00549316,-0.03479,0.00946045,-0.00427246
78,2,0.00427246,0.0408936,0.0378418,0.017395,0.00549316,-0.0296021,0.0137329,0.022583,0.0604248,0.015564,-0.0186157,0.0128174,0.0149536
78,3,0.0268555,0.0186157,0.022583,0.00671387,0.0357056,0.022583,0.0158691,-0.0192261,0.0314331,0.0119019,-0.0192261,0.0131226,0.0131226
78,4,0.015564,0.0140381,0.00610352,0.0256348,0.038147,0.0415039,0.0418091,0.0332642,-0.010376,0.00946045,-0.0244141,-0.00732422,0.0250244
79,0,0.0158691,0.0222778,0.0201416,0.0366211,0.0354004,0.0265503,0.0366211,0.0204468,0.0152588,-0.0167847,-0.017395,0.00946045,0.0650024
79,1,0.0259399,0.0247192,0.0198364,0.0106812,0.0308228,0.0354004,0.0238037,0.0134277,0.0210571,0.0115967,-0.0158691,0.00183105,-0.0195312
79,2,0.0134277,0.0454712,0.0296021,0.022583,0.0222778,0.0283813,0.03479,0.0256348,0.022583,0.00732422,-0.0204468,0.0106812,0.00946045
79,3,-0.0354004,0.0274658,0.0128174,0.0296021,0.0262451,0.0189209,0.0338745,0.0213623,0.027771,0.0228882,0,0.00335693,0.0146484
79,4,0.0137329,-0.0238037,0.0222778,0.0210571,-0.0186157,0.0292969,0.0247192,0.0302124,0.0253296,0.0177002,-0.0161743,0.00610352,0.00335693
80,0,-0.015564,-0.00366211,0.0335693,0.0845337,0.0265503,0.03479,0.0759888,0.0213623,0.00976562,0.0408936,-0.0195312,0.00732422,0.0088501
80,1,0.0158691,0.0170898,0.0500488,0.032959,0.0134277,0.0283813,0.027771,0.0292969,0.0183105,0.0167847,-0.00915527,0.0109863,0.00854492
80,2,0.00274658,0.0137329,0.0180054,0.0146484,0.0305176,0.0234985,0.0463867,0.0231934,0.0201416,0.0250244,-0.0137329,0.0140381,-0.00823975
80,3,0.0170898,0.0244141,0.0372314,0.0265503,0.0234985,0.0296021,0.0271606,0.0219727,0.0299072,-0.0140381,-0.0180054,0.000915527,0.0128174
80,4,0.0146484,0.0140381,0.0158691,-0.0189209,0.0137329,0.0219727,0.017395,0.00640869,0.0213623,-0.00732422,-0.0088501,0.017395,0.0131226
81,0,0.00518799,0.00732422,0.0137329,0.0311279,0.0259399,0.0350952,0.0320435,0.0274658,0.0253296,0.0152588,-0.00274658,0.010376,0.0112915
81,1,0.00305176,0.0140381,-0.0164795,0.015564,0.0299072,-0.0268555,0.0234985,0.0259399,-0.0204468,0.0231934,-0.0140381,0.0167847,0.00549316
81,2,0.0473022,0.00976562,0.00946045,0.0375366,0.0378418,0.0305176,0.0296021,0.0305176,0.0262451,0.00610352,-0.0250244,0.0167847,0.0210571
81,3,0.0259399,0.0210571,0.015564,0.0213623,0.0140381,0.0271606,0.0131226,0.043335,0.0234985,0.0262451,-0.0213623,0.0128174,0.0823975
81,4,0.00671387,0.0198364,0.0759888,0.0140381,0.0234985,0.0665283,0.0378418,0.0341797,0.0674438,0.0259399,-0.0149536,0.0149536,0.0177002
82,0,0.0140381,0.0183105,0.0323486,0.0350952,0.0244141,0.0323486,0.0323486,0.0332642,0.00610352,0.020752,-0.022583,-0.0158691,0.0195312
82,1,0.00579834,0.0396729,0.00732422,0.0198364,0.0177002,0.0244141,0.0302124,0.043335,0.0241089,0.0228882,-0.0177002,-0.043335,0.0442505
82,2,0.0161743,0.0189209,0.00854492,0.0088501,0.0286865,0.0112915,0.0256348,0.0292969,-0.0109863,0.0231934,-0.0271606,0.0228882,0.0167847
82,3,0.0601196,0.0201416,0.0192261,-0.0482178,0.0256348,0.0335693,0.0177002,0.0198364,0.0247192,0.055542,-0.0442505,0.017395,0.0289917
82,4,0.0198364,0.0137329,0.0219727,0.0228882,0.0271606,0.0247192,0.0299072,0.0231934,0.00946045,0.0454712,-0.0170898,0.0491333,-0.0115967
83,0,0.00793457,0.0100708,0.0186157,0.00701904,0.0012207,0.0265503,0.0457764,0.03479,0.0326538,-0.0152588,-0.0180054,-0.00549316,0.0137329
83,1,0.015564,0.0134277,0.0131226,0.0192261,0.0195312,0.0244141,0.0238037,0.0128174,0.0213623,0.0228882,-0.0186157,0.00610352,0.00976562
83,2,0.00549316,0.00152588,0.00579834,0.0256348,0.0311279,0.050354,0.0241089,0.0161743,0.0332642,0.0369263,-0.0335693,0.00274658,0.0204468
83,3,0.00579834,0.0222778,-0.0366211,0.0106812,0.0164795,0.0747681,0.0274658,0.0369263,0.0250244,0.0286865,-0.0231934,0.00518799,0.0256348
83,4,-0.00762939,0.00915527,0.0183105,0.00976562,0.0186157,0.0149536,0.0527954,0.0299072,0.0442505,0.0289917,-0.0259399,-0.0427246,0.0112915
84,0,0.0183105,0.00610352,0.0439453,0.0128174,0.0219727,0.0280762,0.0238037,0.0201416,0.0289917,0.0247192,-0.0286865,0.0216675,0.0537109
84,1,0.0201416,-0.032959,0.015564,0.0170898,-0.0390625,0.0262451,0.027771,0.0421143,0.00823975,0.0250244,-0.0164795,0.0311279,0.0088501
84,2,0.0259399,0.0195312,0.0161743,0.0256348,0.0286865,0.0222778,0.0335693,0.038147,0.0192261,0.0604248,0.0234985,0.0137329,-0.0131226
84,3,0.0247192,0.0131226,0.00854492,0.0198364,0.0219727,0.0314331,0.0274658,0.0183105,0.0366211,0.0250244,0.00793457,0.00946045,0.0125122
84,4,0.0201416,0.0256348,0.0112915,0.0204468,0.0231934,0.0253296,0.0180054,0.067749,0.0268555,0.0149536,-0.00549316,0.03479,0.0201416
85,0,0.0149536,-0.0128174,0.015564,0.0344849,-0.00457764,0.0198364,0.0268555,0.0289917,0.0167847,0.0198364,-0.0143433,0.0241089,0.00640869
85,1,0.0228882,0.0115967,0.00671387,0.03479,0.0332642,0.012207,0.0466919,0.0598145,0.043335,0.0384521,-0.0326538,0.0457764,0.0271606
85,2,0.0149536,0.00366211,0.00762939,0.0427246,0.022583,0.0143433,0.00793457,0.0387573,0.0430298,0.032959,-0.0192261,0.0183105,0.00732422
85,3,0.0253296,0.0088501,0.0210571,0.0164795,0.0170898,0.00915527,-0.0012207,0.0228882,0.022583,0.0436401,-0.0204468,0.0213623,0.0354004
85,4,0.0283813,0.00640869,0.00610352,0.0131226,0.0183105,0.0454712,0.0167847,0.0421143,0.0372314,0.0299072,0.00457764,0.015564,0.017395
86,0,0.0262451,-0.00305176,0.0100708,0.00274658,0.0234985,0.0213623,0.0311279,0.0439453,0.0259399,0.0177002,-0.0424194,0.00396729,0.0250244
86,1,0.0152588,0.0152588,0.0210571,0.0115967,0.015564,0.022583,0.0390625,0.0286865,0.0302124,0.038147,-0.022583,0.0201416,0.0134277
86,2,0.0158691,0.0204468,0.00946045,0.00915527,0.0311279,0.0259399,0.0366211,0.0552368,0.0201416,0.0631714,-0.0305176,0.032959,0.0140381
86,3,0.0100708,0.0286865,0.0106812,0.0137329,0.0344849,0.0256348,-0.00366211,0.0646973,0.0271606,-0.0299072,-0.0311279,0.0189209,0.0201416
86,4,0.0112915,0.0219727,0.00579834,0.0106812,-0.00213623,0.0161743,0.0213623,0.0393677,0.0195312,0.00457764,-0.020752,0.0274658,0.038147
87,0,0.00152588,-0.00152588,0.00732422,0.00610352,0.0106812,0.0192261,0.0177002,0.0735474,0.0198364,0.00488281,-0.0262451,0.03479,0.0442505
87,1,0.0149536,0.0158691,-0.00366211,0.03479,-0.0115967,0.0332642,0.0234985,0.0524902,0.0289917,0.0292969,-0.00823975,0.0109863,0.010376
87,2,-0.00183105,0.00152588,0.0213623,0.012207,0.0201416,0.0881958,0.0363159,0.395203,-0.0201416,0.0296021,-0.0201416,0.0183105,0.017395
87,3,0.0210571,0.0164795,0.0161743,0.00823975,0.0384521,0.015564,0.0271606,0.99762,0.0183105,0.0357056,-0.0393677,0.0311279,0.00854492
87,4,0.0604248,0.0189209,0.0100708,-0.00732422,0.00946045,0.0265503,0.0637817,0.983276,0.022583,0.0354004,0.0140381,0.0244141,0.0195312
88,0,0.0268555,0.0161743,0.00152588,0.0112915,0.0131226,0.0244141,-0.00366211,0.911865,0.0390625,0.0549316,-0.0350952,0.0161743,0.0183105
88,1,0.0268555,-0.0137329,0.0128174,0.00854492,0.0402832,0.0360107,0.0219727,0.853577,0.0274658,0.0308228,-0.0201416,0.0167847,0.0134277
88,2,0.0149536,0.0146484,0.0634766,0.00793457,0.0183105,0.0308228,0.0161743,0.700989,-0.0320435,0.0363159,-0.0234985,0.0234985,0.0158691
88,3,0.0289917,-0.0256348,0.0411987,0.0164795,0.0216675,0.0457764,0.0280762,0.694275,0.0286865,0.0357056,-0.0323486,0.0222778,0.00488281
88,4,0.0250244,0.0213623,0.00274658,0.00854492,0.0146484,0.0201416,0.0250244,0.575562,-0.0320435,0.0457764,-0.0372314,0.00946045,0.0238037
89,0,0.027771,0.0164795,0.0274658,0.0213623,0.0195312,0.00762939,0.00915527,-0.435486,0.0228882,0.0317383,-0.0283813,0.0265503,0.0241089
89,1,0.0265503,0.0137329,0.0680542,0.00335693,0.0128174,0.0265503,0.0338745,-0.498962,0.032959,0.0387573,-0.0332642,0.0204468,-0.012207
89,2,0.0302124,0.022583,0.0204468,0.0140381,0.00152588,0.0332642,0.0238037,-0.513916,0.0558472,0.0341797,-0.0314331,0.0509644,0.00976562
89,3,0.0390625,0.0564575,0.0131226,0.0137329,0.0601196,0.020752,0.0167847,-0.462036,0.0332642,0.0509644,-0.0231934,0.0314331,0.0180054
89,4,0.0360107,0.0289917,0.0262451,0.0192261,0.0198364,0.0186157,0.00701904,-0.415955,0.0436401,0.0299072,-0.0259399,0.0222778,0.0143433
90,0,0.0262451,0.0280762,0.00640869,0.0143433,0.0161743,0.0274658,0.0125122,-0.387878,-0.00823975,0.0299072,-0.0286865,-0.0494385,0.0170898
90,1,0.0439453,0.0238037,0.00854492,0.0109863,0.0204468,0.0314331,0.0088501,-0.201416,0.0341797,0.0302124,-0.0305176,0.0244141,0.015564
90,2,0.0375366,0.03479,-0.000610352,0.0112915,0.027771,0.0308228,0.020752,-0.338135,0.0256348,0.0341797,-0.0238037,0.0109863,0.0305176
90,3,0.0222778,-0.00152588,0.00823975,0.000610352,-0.0131226,0.0204468,0.038147,-0.290222,0.0317383,0.022583,0.00213623,0.0238037,0.0183105
90,4,0.00396729,0.0268555,0.0268555,0.0256348,0.0567627,0.0311279,0.038147,-0.205078,0.0317383,0.0350952,-0.0228882,0.0317383,0.0314331
91,0,0.0469971,0.00366211,-0.0128174,0.00946045,0.00701904,0.0256348,0.0253296,-0.160522,0.022583,0.0180054,-0.0268555,0.0180054,0.0204468
91,1,0.0286865,0.0109863,0.0183105,0.00579834,0.0335693,0.0167847,0.00915527,0.533447,0.0210571,0.0308228,-0.0320435,0.0335693,0.022583
91,2,0.0350952,0.0253296,0.0527954,0.0180054,0.00946045,0.0125122,0.00915527,0.974426,0.0241089,0.0231934,-0.0430298,0.0204468,-0.0012207
91,3,0.0363159,0.038147,0.0161743,-0.0436401,0.00244141,0.0363159,0.0665283,1.07758,0.0482178,0.0241089,-0.0372314,0.0231934,0.0189209
91,4,0.0473022,0.0195312,0.0234985,0.0106812,0.0177002,0.0204468,0.0247192,-0.134277,0.0234985,0.0421143,-0.0271606,0.017395,0.0222778
92,0,0.0256348,0.0216675,0.027771,0.0234985,0.0723267,0.0149536,0.00366211,-0.574951,0.0234985,0.00671387,-0.027771,0.0360107,0.0234985
92,1,0.0344849,0.0149536,-0.00335693,0.00335693,-0.00671387,0.0241089,0.0250244,-0.542603,0.0375366,0.0268555,-0.0115967,0.0363159,0.0280762
92,2,0.0308228,0.0195312,0.0088501,0.0210571,0.0283813,-0.0247192,0.0241089,-0.517578,0.0457764,0.0286865,-0.0338745,0.0231934,0.0256348
92,3,0.0427246,0.0170898,0.0167847,0.0811768,0.0244141,0.0219727,0.0125122,-0.459595,0.03479,-0.000305176,-0.0305176,0.0408936,0.0439453
92,4,0.032959,0.0161743,0.0302124,-0.000305176,0.0131226,0.0128174,0.022583,-0.447998,0.0427246,0.0213623,-0.0222778,-0.00854492,0.0271606
93,0,0.0317383,0.0106812,0.0119019,0.0134277,0.0177002,0.00976562,0.0292969,-0.361328,0.0234985,-0.00793457,-0.0549316,0.0396729,0.0146484
93,1,0.0369263,0.0177002,0.0158691,0.0411987,0.00793457,0.0158691,-0.00976562,-0.334778,0.0308228,0.0131226,-0.0402832,0.0323486,0.032959
93,2,0.0314331,0.032959,0.00793457,0.0582886,0.027771,0.00549316,0.0683594,-0.290527,0.0411987,0.057373,-0.0311279,0.020752,0.0186157
93,3,0.0344849,0.0146484,0.0170898,0.0134277,0.00762939,0.0137329,0.0296021,-0.243835,0.0256348,0.0189209,-0.03479,0.0219727,0.0134277
93,4,0.015564,0.0265503,-0.0323486,0.0177002,0.00549316,-0.0299072,0.022583,-0.236511,0.0393677,0.0363159,-0.0268555,0.0216675,0.0549316
94,0,0.0216675,0.0140381,0.027771,0.0115967,0.0494385,0.0201416,0.0164795,-0.220947,0.0146484,0.0253296,-0.0106812,0.0158691,0.0128174
94,1,0.0466919,0.0192261,0.0112915,0.0146484,0.0213623,0.0167847,0.0186157,-0.185547,0.0250244,0.00457764,-0.0457764,0.0357056,-0.0280762
94,2,0.0204468,0.0137329,0.0128174,0.0137329,0.0106812,0.00518799,0.0149536,-0.173035,0.0143433,0.0146484,-0.0283813,0.0152588,0.0561523
94,3,0.0283813,0.0357056,0.0216675,0.0256348,0.0152588,0.0344849,0.0152588,-0.149536,-0.00854492,0.0262451,-0.0274658,-0.0372314,0.0271606
94,4,0.0259399,0.0177002,-0.00183105,0.0283813,0.027771,-0.020752,0.0180054,-0.114136,0.0170898,0.0158691,-0.0241089,0.0311279,0.0317383
95,0,0.0283813,0.0259399,0.0338745,0.00549316,0.0158691,0.0650024,0.00823975,-0.12207,0.0366211,0.0350952,-0.0390625,0.0180054,-0.000305176
95,1,0.0292969,0.0106812,0.0201416,0.0137329,0.00946045,0.00366211,0.0195312,-0.0790405,0.0292969,0.0177002,-0.0164795,0.0335693,0.0109863
95,2,0.0112915,0.0234985,0.0167847,0.0152588,0.0134277,0.00518799,0.0183105,-0.071106,0.0228882,0.0170898,-0.0134277,0.00183105,0.0186157
95,3,0.0164795,0.0231934,0.00762939,0.0134277,0.0167847,-0.0164795,0.0216675,-0.0500488,0.0241089,0.0317383,-0.032959,0.00366211,0.0296021
95,4,0.0390625,0.0750732,0.0283813,0.00793457,-0.055542,0.0241089,0.0198364,-0.045166,0.0219727,0.0296021,-0.0262451,0.0012207,0.0247192
96,0,0.020752,0.0152588,0.0216675,0.00671387,0.0149536,0.0112915,0.00701904,-0.0222778,0.0216675,0.0283813,-0.0619507,0.0183105,0.0296021
96,1,0.0180054,0.0183105,0.0326538,0.0195312,0.0326538,0.071106,0.0262451,-0.00915527,-0.0384521,0.0302124,-0.0305176,0.0714111,-0.00396729
96,2,0.0280762,0.0250244,0.0125122,0.0088501,0.0088501,0.0592041,0.0115967,0.0250244,0.0280762,0.0247192,-0.0286865,0.0143433,0.0317383
96,3,0.0457764,0.0143433,0.0234985,0.00396729,0.00976562,0.0198364,0.0271606,0.00640869,0.0271606,0.0244141,-0.0424194,0.0128174,0.0201416
96,4,0.0265503,0.0222778,0.027771,0.0262451,0.00823975,-0.00335693,0.022583,0.0106812,0.0469971,0.0259399,-0.0302124,0.0369263,0.0161743
97,0,0.038147,0.0268555,0.032959,0.00488281,-0.0274658,0.0161743,0.0125122,0.0106812,0.0186157,0.0320435,-0.0143433,0.010376,0.0112915
97,1,0.0445557,0.0308228,0.0164795,0.0344849,-0.00274658,0.0100708,0.0115967,0.0653076,0.020752,0.00335693,-0.0320435,0.0296021,0.0289917
97,2,0.0387573,0.057373,0.0283813,0.0152588,0.0180054,0.00457764,0.0134277,0.0213623,0.0320435,0.0512695,-0.0372314,-0.00793457,0.0244141
97,3,0.0244141,0.0213623,0.0299072,0.0274658,0.0769043,0.0192261,0.0128174,0.0582886,0.0314331,0.0149536,-0.0415039,0.0283813,0.0195312
97,4,0.0448608,0.00915527,0.00946045,0.0369263,-0.00335693,0.0137329,0.0259399,0.0216675,0.0323486,0.0289917,-0.0286865,0.0283813,0.020752
98,0,0.0424194,0.0244141,0.017395,0.0567627,0.0158691,0,0.0271606,0.0357056,0.0469971,0.0262451,-0.022583,0.0604248,0.027771
98,1,0.0213623,0.0192261,0.0115967,0.00732422,0.0158691,0.00671387,0.0198364,0.0421143,0.0177002,0.0296021,-0.0418091,0.0289917,0.0216675
98,2,0.0244141,0.0265503,0.0231934,0.0308228,0.000915527,0.0195312,0.0350952,0.0436401,0.0262451,0.0192261,-0.0012207,0.0286865,0.00732422
98,3,0.0143433,0.0238037,0.0344849,0.0149536,0.0119019,0.0415039,0.00152588,0.0332642,0.0372314,0.0228882,-0.0271606,-0.0265503,0.0234985
98,4,0.0119019,0.017395,0.0158691,0.0204468,0.0213623,0.00823975,0.0164795,0.0100708,0.0189209,0.0750732,-0.0183105,0.0262451,0.0772095
99,0,0.0643921,0.0344849,0.0119019,0.0216675,0.00274658,0.0100708,0.00305176,0.0210571,0.0216675,0.027771,-0.027771,0.0234985,0.0186157
99,1,0.0259399,0.0302124,0.0161743,0.0765991,-0.000610352,-0.00488281,0.0234985,0.0198364,0.0195312,0.0265503,-0.0302124,0.00427246,0.0314331
99,2,0.0256348,0.015564,0.0177002,0.0247192,0.00610352,-0.000305176,0.0161743,0.0421143,0.0231934,0.027771,-0.0231934,0.022583,0.0305176
99,3,0.0424194,0.0244141,0.0363159,0.0189209,0.0170898,0.00488281,0.0146484,0.0210571,0.0234985,0.0238037,-0.0213623,0.0256348,-0.0256348
99,4,0.0271606,0.0143433,0.038147,0.0238037,0.0259399,-0.00610352,0.0231934,0.0192261,0.0286865,0.0323486,-0.038147,0.0177002,0.032959
100,0,0.0427246,0.0186157,-0.020752,0.0543213,0.0088501,-0.000915527,0.0262451,0.0280762,0.0180054,0.0387573,-0.0387573,0.0366211,0.043335
100,1,0.0286865,0.0189209,0.0396729,0.0415039,0.00823975,0.00213623,0.0143433,0.017395,0.0332642,0.0317383,-0.0253296,0.0320435,0.0137329
100,2,0.0366211,0.012207,0.0228882,0.0271606,0.027771,0.0131226,0.00213623,0.0411987,0.017395,0.0332642,-0.0262451,0.0396729,0.0848389
100,3,0.0344849,0.020752,0.022583,0.0527954,0.0216675,0.0244141,0.0305176,0.0442505,0.0152588,0.00823975,-0.0372314,0.0350952,0.0271606
100,4,0.0299072,0.0427246,0.0244141,0.0323486,-0.00671387,0.00762939,0.0262451,0.0421143,0.0259399,0.000610352,-0.0314331,0.0387573,0.0411987
101,0,0.0201416,0.00579834,0.0192261,0.0222778,0.0317383,-0.0140381,0.0262451,0.0360107,0.0518799,0.0271606,-0.0274658,0.0524902,0.0363159
101,1,0.0515747,0.0296021,0.0332642,0.0201416,0.0234985,0.0012207,0.0299072,0.0134277,0.0210571,0.0238037,-0.0366211,0.0372314,0.0280762
101,2,0.0280762,0.0305176,0.0842285,0.0280762,0.00518799,-0.0518799,0.00701904,0.0247192,0.0283813,0.0326538,-0.0463867,0.0320435,0.0521851
101,3,0.027771,0.0296021,0.0262451,0.0256348,0.00305176,0.0234985,0.0204468,0.0250244,0.00976562,-0.00793457,-0.0442505,0.0210571,0.0344849
101,4,0.0250244,0.0222778,0.0775146,0.0244141,0.0137329,0.0341797,0.0140381,0.0460815,-0.0311279,0.0302124,-0.0271606,0.0363159,0.032959
102,0,0.0216675,0.0314331,0.0265503,0.0247192,0.0265503,0.0213623,0.0088501,0.0308228,0.0167847,0.0112915,-0.0299072,0.00793457,0.0436401
102,1,0.0268555,-0.0231934,0.0317383,0.0167847,0.017395,0.010376,0.0143433,0.0210571,0.0152588,0.0192261,-0.0274658,0.0192261,0.0360107
102,2,0.010376,0.0186157,0.0369263,0.0219727,0.0210571,0.0274658,0.0189209,0.0549316,0.0164795,0.010376,-0.039978,0.0119019,0.0302124
102,3,0.0195312,0.0283813,0.0247192,0.0192261,0.010376,-0.00274658,0.0149536,0.0375366,-0.0332642,0.0363159,-0.0234985,-0.0271606,0.0509644
102,4,0.0286865,0.0415039,0.00854492,0.0772095,0.0164795,0.0262451,0.0219727,0.0161743,0.0305176,-0.0189209,-0.0689697,0.0250244,0.0286865
103,0,0.0253296,0.0283813,0.0256348,0.0289917,0.0296021,0.0213623,0.0167847,0.000305176,0.0286865,0.0195312,-0.0314331,0.0299072,0.0286865
103,1,0.0393677,0.0262451,0.0231934,0.0366211,0.0247192,0.0109863,0.0119019,0.0143433,-0.0241089,0.0460815,-0.020752,0.0283813,0.0305176
103,2,0.0161743,-0.0363159,0.0241089,0.0167847,0.0128174,0.0216675,0.0115967,0.0186157,0.0369263,0.0238037,-0.0387573,0,0.0250244
103,3,0.0323486,0.0247192,0.0427246,0.0183105,0.022583,0.00610352,0.0167847,0.0305176,0.00701904,0.0241089,-0.0195312,0.0354004,0.0302124
103,4,0.0369263,0.0262451,0.0405884,0.0344849,0.0167847,0.0299072,0.0186157,0.0134277,0.0231934,0.0332642,-0.0289917,0.0198364,0.0292969
104,0,0.032959,0.0454712,0.0241089,0.0192261,0.0219727,0.0213623,0.0445557,-0.0128174,0.0204468,0.0213623,-0.0357056,0.0152588,0.0375366
104,1,0.032959,0.015564,0.0268555,0.0201416,0.0143433,0.0137329,0.0180054,0.0100708,0.0109863,0.0180054,-0.0311279,0.0344849,0.0250244
104,2,0.0387573,0.0363159,0.0311279,0.0140381,0.0213623,0.0234985,0.00732422,-0.0213623,0.0192261,0.0564575,-0.0286865,0.0234985,0.017395
104,3,0.0289917,0.0378418,0.027771,0.0271606,-0.00518799,-0.00305176,0.00579834,-0.0216675,0.0286865,0.0152588,-0.0271606,0.0445557,0.0338745
104,4,0.03479,0.0213623,0.027771,0.0363159,0.0228882,0.0143433,0.0128174,0.0112915,0.0143433,0.0198364,-0.039978,0.0775146,0.0405884
105,0,0.0222778,0.0204468,0.0344849,0.0183105,0.0186157,0.0241089,0.0320435,0,0.0201416,0.0152588,-0.0234985,0.0183105,0.0756836
105,1,0.0308228,0.0201416,0.0308228,-0.0137329,0.020752,0.0283813,0.0744629,0.00183105,0.0274658,-0.0271606,-0.027771,0.0177002,0.038147
105,2,0.0210571,0.0247192,0.039978,0.0280762,0.0109863,0.0143433,0.0112915,0.0131226,0.0183105,0.0180054,-0.0244141,0.03479,0.0372314
105,3,-0.0262451,0.017395,0.0189209,0.0579834,0.0204468,0.0143433,-0.000610352,0.0115967,0.0149536,0.0427246,-0.03479,0.0241089,0.0317383
105,4,0.0192261,0.0427246,0.038147,0.0332642,0.000305176,0.0195312,0.0137329,-0.0158691,0.0274658,0.0256348,0.0112915,0.0317383,0.0366211
106,0,0.0415039,0.0415039,0.0335693,-0.0222778,0.0195312,0.017395,-0.00793457,0.0366211,0.0198364,0.0546265,-0.0253296,0.0332642,0.0289917
106,1,0.0439453,0.0198364,0.0320435,0.0552368,0.0247192,0.0195312,0.0216675,0.0454712,0.0140381,0.0244141,-0.0360107,0.0308228,0.0335693
106,2,0.0408936,0.027771,0.0305176,0.0320435,0.0259399,0.0216675,0.0115967,0.043335,0.0137329,0.0326538,-0.015564,0.0271606,0.0476074
106,3,0.0271606,0.0311279,0.0601196,0.0350952,-0.00305176,0.00732422,0.0177002,0.0436401,0.00793457,0.0161743,-0.0231934,0.0274658,0.0286865
106,4,0.0234985,0.0317383,0.0311279,0.015564,0.0323486,0.0201416,-0.0131226,0.0317383,0.010376,-0.0189209,-0.0210571,0.0210571,0.0344849
107,0,0.0369263,0.0274658,0.0198364,0.0308228,0.0314331,0.017395,0.0152588,0.0344849,0.0222778,0.0259399,-0.0198364,0.0247192,0.022583
107,1,0.0311279,0.017395,0.0152588,0.0286865,0.0244141,-0.0473022,0.0177002,0.00579834,-0.0137329,0.0131226,-0.0299072,0.0268555,0.0363159
107,2,0.0396729,0.0286865,0.0192261,-0.0112915,0.022583,0.0158691,-0.00457764,0.0201416,0.0177002,0.0183105,-0.0363159,0.0259399,0.043335
107,3,0.038147,0.0424194,0.0302124,0.038147,0.0216675,0.0146484,0.0289917,0.0317383,0.00610352,0.0265503,-0.0210571,0.0369263,0.0363159
107,4,0.0305176,0.0372314,0.0350952,0.0296021,0.0302124,0.00854492,0.0259399,0.0405884,0.0363159,0.027771,-0.0238037,0.0286865,0.0195312
108,0,0.0369263,0.0396729,0.0350952,0.0265503,0.0311279,0.0253296,0.0238037,0.010376,0.0204468,0.0314331,-0.0323486,0.00701904,0.0350952
108,1,0.0247192,-0.0088501,0.0259399,0.0216675,0.0213623,0.0161743,0.0283813,0.0405884,0.00762939,0.0228882,-0.0326538,0.057373,0.0338745
108,2,0.0250244,0.0259399,0.0247192,0.0350952,0.0280762,0.0204468,0.010376,0.032959,0.0332642,0.0238037,-0.0302124,-0.0109863,0.0515747
108,3,0.0598145,0.0292969,0.0344849,0.0408936,0.0338745,0.0253296,0.0256348,0.00732422,0.015564,0.022583,-0.0192261,0.020752,0.0292969
108,4,0.0210571,0.0195312,0.0198364,0.0305176,0.0222778,0.0775146,0.0350952,0.0387573,-0.0228882,0.0494385,-0.0296021,0.0119019,0.00579834
109,0,0.0222778,0.0244141,0.0393677,0.0463867,0.0445557,-0.00244141,0.0311279,0.0338745,-0.00305176,0.0238037,-0.0186157,0.0335693,0.0244141
109,1,0.0308228,0.0338745,0.0350952,0.032959,0.0402832,0.0222778,0.0265503,0.0637817,0.00427246,0.0244141,-0.0222778,0.0289917,0.0308228
109,2,0.0180054,0.022583,0.0201416,0.038147,-0.000610352,0.0344849,0.0296021,0.0982666,0.000915527,0.000610352,-0.0210571,0.027771,0.0482178
109,3,0.0204468,0.0286865,0.0250244,0.0283813,0.0265503,-0.00762939,0.0201416,0.0372314,-0.00427246,0.0189209,-0.0183105,0.057373,0.0195312
109,4,0.0167847,0.0250244,0.0231934,0.0384521,0.0332642,0.0244141,0.0216675,0.0509644,-0.00366211,0.0198364,-0.0317383,0.0115967,0.0396729
110,0,0.0222778,0.0259399,-0.0262451,0.027771,0.0283813,0.0231934,0.0344849,0.0390625,0.00732422,-0.00274658,-0.0100708,0.0302124,0.0497437
110,1,0.0265503,0.0683594,0.0454712,0.0354004,0.0518799,0.0335693,0.0262451,0.0375366,0.0106812,0.017395,-0.0305176,0.0152588,0.0268555
110,2,0.0115967,0.0335693,0.0323486,0.0320435,0.0189209,0.0143433,0.0289917,0.0274658,0.00793457,0.0219727,0.00640869,0.0299072,0.0244141
110,3,0.0183105,0.0436401,0.0183105,0.0250244,0.0186157,0.0292969,0.0250244,0.0497437,0.0140381,0.0375366,-0.0640869,0.0311279,0.0143433
110,4,0.0552368,0.0354004,0.00793457,0.0274658,0.0314331,0.00610352,0.0259399,0.0326538,0.0219727,0.010376,-0.0192261,0.000610352,0.0256348
111,0,0.0445557,0.0250244,0.038147,0.0332642,0.088501,0.0317383,0.022583,0.0765991,-0.000610352,0.0115967,-0.0228882,0.0234985,0.0302124
111,1,0.0256348,0.0234985,0.0354004,0.0280762,0.0299072,0.0164795,0.0195312,0.0366211,0.00305176,0.0198364,-0.0115967,0.0311279,0.00762939
111,2,0.022583,0.0262451,0.0558472,0.101929,0.0344849,0.022583,0.0683594,0.0143433,0.0137329,0.0564575,-0.0140381,0.0357056,0.0286865
111,3,0.0491333,-0.0265503,0.0341797,0.0375366,0.0387573,0.0106812,0.0189209,0.0357056,0.0222778,0.0247192,-0.0259399,0.0772095,0.027771
111,4,0.0222778,0.0454712,0.0195312,0.0149536,0.0231934,0.0146484,0.0280762,0.0509644,0.0146484,0.0012207,-0.0262451,0.0372314,0.00671387
112,0,0.0430298,0.00244141,0.0204468,0.0717163,0.0283813,0.0189209,0.06073,0.0308228,0.0180054,0.0564575,-0.0665283,0.0350952,0.0634766
112,1,0.0164795,0.0247192,0.022583,0.0302124,0.0271606,0.0125122,0.0265503,0.0375366,0.0201416,0.0683594,-0.00946045,0.0323486,0.0497437
112,2,0.00183105,0.0271606,0.0552368,0.022583,0.0222778,0.0112915,0.022583,0.0402832,0.00244141,-0.0012207,-0.00976562,0.0360107,0.03479
112,3,0.0314331,0.0323486,0.0170898,0.0411987,0.00549316,0.0247192,0.0674438,0.0415039,0.0128174,-0.0204468,-0.0115967,0.0170898,0.0186157
112,4,0.0311279,0.0515747,0.0149536,0.0372314,-0.022583,0.0152588,0.020752,0.0234985,0.017395,0.0299072,-0.0112915,0.0442505,0.0274658
113,0,0.0222778,0.0115967,0.0100708,0.0341797,0.0323486,-0.00457764,0.032959,0.0411987,0.020752,-0.038147,-0.0250244,0.0265503,-0.012207
113,1,0.0186157,0.0204468,0.0396729,0.0344849,-0.00671387,0.0231934,0.0241089,0.0900269,-0.00823975,0.0283813,-0.0683594,0.0335693,0.0292969
113,2,0.0119019,0.0302124,0.0357056,0.0415039,0.0350952,0.00823975,0.0314331,0.0463867,0.0491333,-0.000915527,-0.015564,0.03479,0.0302124
113,3,0.0164795,0.0158691,0.0302124,0.0234985,0.0396729,0.0378418,0.0259399,0.0390625,-0.0183105,0.0234985,-0.0140381,0.0259399,0.0192261
113,4,0.0299072,0.039978,0.0354004,0.0360107,0.0421143,0.0302124,0.0131226,0.0411987,0.0170898,0.0338745,-0.0518799,0.0231934,0.00762939
114,0,0.0137329,0.0244141,0.00305176,0.0259399,0.0338745,0.0238037,0.0289917,0.0323486,0.0088501,0.0640869,-0.020752,0.0201416,-0.0473022
114,1,0.0588989,0.0439453,0.0250244,0.0305176,0.0390625,0.0283813,0.0234985,0.0323486,0.0250244,0.0186157,-0.0170898,0.017395,0.032959
114,2,0.027771,0.0283813,-0.0308228,0.0149536,0.0247192,-0.017395,0.0119019,0.0387573,0.0149536,0.015564,-0.0332642,0.0228882,0.0131226
114,3,0.0167847,0.0112915,0.0476074,0.0128174,0.0244141,0.00793457,0.0164795,0.0524902,0.012207,-0.00152588,-0.0167847,0.0234985,0.00518799
114,4,0.0131226,0.0210571,0.0134277,0.0244141,0.00640869,0.0369263,0.0143433,0.0268555,0.0686646,0.0204468,-0.00671387,0.0259399,0.0115967
115,0,0.0109863,0.0219727,0.0161743,-0.00793457,0.0424194,0.0253296,0.020752,0.0363159,-0.00335693,0.0253296,-0.0286865,0.0106812,0.0167847
115,1,0.0112915,0.0323486,0.0820923,0.0439453,0.027771,0.0888062,0.0216675,0.0393677,0.015564,0.0296021,-0.0204468,0.012207,0.0131226
115,2,-0.00396729,0.0164795,0.0271606,0.0180054,0.0167847,0.0204468,0.0299072,0.0213623,0.00823975,0.0088501,-0.00396729,0.0189209,0.0192261
115,3,0.015564,0.0769043,0.057373,0.0244141,0.0811768,0.0167847,0.0201416,0.027771,0.0119019,0.0265503,-0.0192261,0.0228882,0.0537109
115,4,0.03479,0.0305176,0.0189209,0.0253296,0.0164795,0.0268555,0.0253296,0.0372314,0.0280762,0.0134277,-0.0134277,0.0274658,0.0326538
116,0,-0.00457764,0.0195312,0.0186157,0.0302124,0.0439453,0.03479,0.0134277,0.0494385,-0.0332642,0.0164795,-0.0189209,-0.0396729,0.0271606
116,1,0.0164795,0.0512695,0.0366211,0.0292969,0.0427246,0.0421143,0.0268555,0.0949097,0.0247192,0.0198364,-0.0216675,0.0234985,0.0323486
116,2,0.00793457,0.0286865,0.0231934,0.0146484,0.0671387,0.0393677,0.0164795,0.0604248,0.00976562,-0.00305176,-0.00457764,0.0152588,-0.000610352
116,3,0.0311279,0.0170898,0.0296021,0.0183105,0.0366211,0.0222778,0.00793457,0.0656128,0.0167847,0.0415039,0.0109863,0.00579834,0.0112915
116,4,0.0115967,0.0302124,0.0292969,0.0216675,-0.0177002,0.0314331,0.0228882,-0.0143433,0.00183105,0.0256348,-0.0189209,0.0317383,0.022583
117,0,0.0256348,0.0204468,0.0177002,0.0265503,0.0247192,0.0650024,0.0271606,0.0161743,0.0268555,0.010376,-0.032959,-0.0128174,0.0106812
117,1,0.0137329,0.0128174,0.0109863,0.0366211,-0.0106812,0.0354004,0.0384521,0.0241089,0.0149536,-0.00427246,-0.0100708,0.0137329,0.0112915
117,2,0.00915527,-0.000915527,0.0668335,0.0183105,0.0189209,0.0650024,0.0338745,0.0366211,-0.00457764,0.00976562,-0.0186157,0.0177002,0.0210571
117,3,0.0152588,0.0158691,0.0234985,0.0784302,0.0384521,0.0363159,-0.015564,0.0445557,0.0253296,0.0201416,-0.010376,0.00610352,0.0241089
117,4,0.00274658,0.0186157,0.0213623,0.0460815,0.0146484,0.0253296,0.0259399,0.027771,0.0143433,-0.0250244,-0.0192261,0.0180054,0.104675
118,0,0.0170898,0.0521851,0.0213623,0.0323486,0.027771,0.0158691,0.0183105,0.0234985,0.0137329,0.00976562,-0.0164795,0.0308228,0.0238037
118,1,-0.00366211,0.0131226,0.0317383,0.0216675,0.0366211,0.0393677,0.0299072,-0.0253296,0.0183105,0.0112915,-0.0375366,0.022583,0.0296021
118,2,0.0112915,0.020752,0.00793457,0.00488281,0.0271606,0.0375366,0.0198364,0.0143433,0.0631714,0.0131226,-0.0183105,0.0369263,0.0152588
118,3,0.0106812,0.0299072,0.0186157,0.0662231,0.0302124,0.0247192,0.0262451,0.0332642,0.00946045,0.0289917,-0.012207,0.032959,0.0183105
118,4,0.0228882,0.0222778,-0.0341797,0.0299072,0.010376,0.0595093,0.0180054,0.0219727,0.0506592,0.00518799,-0.00946045,0.0219727,0.0219727
119,0,0.0106812,0.027771,-0.0158691,0.0326538,0.0204468,0.0195312,0.0860596,0.0259399,0.0134277,-0.0012207,-0.0146484,0.0146484,0.0271606
119,1,0.0201416,0.0357056,0.0143433,-0.0265503,0.0491333,0.0378418,0.0109863,0.0262451,0.0259399,0.0161743,-0.00701904,0.0183105,0.022583
119,2,0.0469971,0.0268555,0.0186157,0.0442505,0.0372314,0.0265503,-0.0308228,0.0341797,0.0112915,0.0289917,-0.0134277,0.00396729,0.0164795
119,3,0.00793457,0.0247192,-0.00244141,0.010376,0.0439453,0.0137329,0.0274658,0.0415039,0.0143433,0.0393677,0.00183105,0.0158691,0.0219727
119,4,0.027771,0.0247192,0.0714111,0.0302124,0.0222778,0.0634766,0.0405884,0.00244141,0.0198364,0.0311279,0.0100708,0.0189209,0.0195312
120,0,0.00793457,0.0109863,0.020752,0.0231934,0.0485229,0.0308228,0.0259399,0.0323486,0.0112915,-0.000610352,-0.0692749,0.0241089,0.027771
120,1,0.015564,0.0222778,0.0198364,0.0338745,0.0219727,0.0357056,0.00488281,0.0271606,0.0411987,-0.0369263,-0.0137329,0.0152588,-0.0228882
120,2,0.0161743,0.00579834,0.0195312,0.0292969,0.0280762,0.0250244,0.0354004,0.038147,0.00793457,0.012207,-0.0442505,0.012207,0.00335693
120,3,0.0210571,0.0195312,0.0158691,0.0198364,0.0268555,0.0149536,0.0387573,0.0244141,0,0.0244141,-0.0238037,-0.0256348,0.00915527
120,4,0.0259399,0.0228882,0.045166,0.0253296,0.0244141,0.0588989,0.0256348,0.0274658,0.015564,0.0149536,-0.0259399,0.0283813,0.00946045
121,0,0.0241089,0.0311279,-0.0360107,0.0317383,0.032959,-0.0244141,0.0402832,0.0128174,0.0344849,0.0195312,-0.00946045,0.0100708,0.0317383
121,1,-0.0128174,0.0222778,0.0167847,0.0674438,0.0302124,0.0415039,0.0762939,0.0415039,0.0241089,0.0704956,-0.0271606,0.0131226,0.0650024
121,2,0.0140381,0.00427246,0.0158691,0.0177002,0.0286865,0.00152588,0.0369263,0.0323486,-0.000610352,0.00640869,-0.0253296,-0.0195312,0.0183105
121,3,-0.0222778,0.022583,0.00427246,0.0262451,0.0305176,0.0408936,0.0436401,0.0320435,0.03479,0.00671387,-0.0253296,0.0302124,0.0134277
121,4,0.0115967,0.0665283,0.0546265,0.0238037,-0.0256348,0.039978,0.0317383,0.0479126,0.0323486,0.00915527,-0.0109863,0.0222778,0.0109863
122,0,0.0177002,0.00946045,0.00732422,0.0262451,0.0448608,0.03479,0.0332642,0.0466919,0.0222778,0.012207,-0.0250244,0.0109863,0.0125122
122,1,0.00335693,0.0149536,-0.0146484,0.00396729,0.0152588,0.0720215,0.0415039,0.0387573,0.027771,0.0192261,-0.0106812,0.0234985,0.0164795
122,2,0.0195312,0.0210571,0.043335,0.0192261,0.0360107,-0.0350952,0.0411987,0.0314331,0.0375366,0.0158691,-0.0146484,0.0216675,0.00946045
122,3,0.0146484,0.0241089,0.022583,0.0299072,0.0241089,0.0219727,-0.0125122,0.0106812,0.0195312,0.0231934,-0.0247192,0.0262451,0.00915527
122,4,0.010376,0.0823975,0.0146484,0.0186157,0.0653076,0.0250244,0.0335693,-0.0109863,0.032959,0.0302124,-0.0128174,0.00152588,0.0292969
123,0,0.0296021,0.0244141,0.012207,0.0012207,0.0283813,0.00946045,-0.0204468,0.0238037,0.0378418,0.0271606,-0.0180054,0.0390625,0.065918
123,1,0.0115967,0.0100708,0.0128174,0.017395,-0.0109863,0.0421143,0.0305176,0.0692749,0.0170898,0.0137329,-0.0115967,0.00793457,0.0177002
123,2,0.0106812,0.0280762,0.0228882,0.0201416,-0.000610352,0.0256348,0.0335693,0.022583,0.0241089,-0.00610352,-0.0119019,0.0280762,0.0180054
123,3,0.0128174,0.0772095,0.0134277,0.0210571,0.0683594,0.0244141,0.0311279,0.0750732,0.0384521,0.0186157,-0.0140381,0,0.0149536
123,4,0.00366211,0.0723267,0.015564,0.0234985,0.0476074,0.0350952,0.0390625,0.0567627,0.0311279,0.010376,-0.0149536,0.0134277,0.00518799
124,0,-0.0238037,0.0152588,0.027771,-0.00610352,0.022583,0.032959,0.0271606,0.0158691,0.0167847,0.00671387,-0.00946045,0.0183105,0.00579834
124,1,0.0201416,0.0418091,0.0369263,0.0115967,0.0415039,0.0363159,0.0210571,0.0296021,0.0161743,0.0149536,-0.010376,-0.0088501,-0.0158691
124,2,0.0125122,0.00732422,0.017395,0.0463867,0.0250244,0.0219727,0.0393677,0.0500488,0.0222778,0.0204468,-0.0213623,0.00793457,0.00915527
124,3,0.0164795,0.0201416,0.00274658,0.0241089,0.03479,0.0576782,0.0146484,0.0415039,0.0183105,-0.00274658,-0.020752,0.0137329,-0.00183105
124,4,0.0149536,0.0152588,0.0128174,0.0253296,0.0485229,0.0262451,0.0784302,0.027771,0.0204468,0.0253296,-0.0106812,0.0253296,0.0231934
125,0,-0.0210571,0.0164795,0.0213623,-0.017395,0.022583,0.0323486,0.00701904,0.0286865,0.0231934,0.0164795,-0.0280762,0.0088501,0.0204468
125,1,0.0613403,0.0265503,0.0131226,-0.032959,0.0216675,0.0479126,0.0421143,0.0415039,0.0234985,0.0198364,-0.0228882,0.0186157,0.0259399
125,2,0.0204468,0.022583,0,0.0137329,0.0354004,0.0354004,0.0332642,0.017395,0.0198364,0.0256348,-0.0210571,-0.00183105,0.0143433
125,3,0.00640869,0.0170898,0.0366211,0.0280762,0.0234985,0.022583,0.0585938,0.0335693,0.0213623,0.0289917,-0.0183105,0.00915527,-0.038147
125,4,0.0186157,0.0149536,0.0112915,0.00518799,0.00823975,0.0161743,0.0296021,0.0396729,0.0250244,0.00946045,-0.0192261,0.0366211,0.0088501
126,0,0.0234985,0.00671387,0.012207,0.0238037,0.0234985,0.0250244,0.0283813,0.0369263,0.0247192,-0.00457764,-0.0183105,0.00732422,0.0222778
126,1,0.00732422,0.0219727,-0.0183105,0.0088501,0.0259399,0.0201416,0.0344849,0.038147,0.0213623,0.0112915,-0.0344849,0.0109863,0.0115967
126,2,0.0238037,0.0289917,0.0100708,0.0238037,0.00335693,0.0286865,0.0234985,0.0613403,0.0283813,0.0210571,0.00915527,0.0195312,0.0183105
126,3,-0.00671387,0.0286865,0.0283813,0.0546265,0.0158691,0.0280762,0.0247192,0.0341797,0.0216675,0.0100708,-0.0250244,0.010376,0.0280762
126,4,0.0204468,0.0286865,0.0256348,0.0177002,0.0326538,0.039978,0.0332642,0.032959,0.0344849,0.0219727,-0.0228882,0.0189209,0.022583
127,0,0.0195312,0.0366211,0.0662231,0.0253296,0.0222778,0.038147,0.0259399,0.0308228,0.00244141,0.000915527,-0.0177002,0.0463867,0.0201416
127,1,0.0158691,0.00823975,0.0198364,0.0256348,0.0259399,0.0256348,0.00213623,0.0274658,0.0186157,0.0210571,-0.0274658,0.0180054,0.0195312
127,2,0.00366211,0.0149536,-0.0201416,0.015564,0.0186157,0.0946045,0.0219727,0.0357056,0.0231934,0.020752,-0.0219727,0.00823975,0.00335693
127,3,0.0286865,0.00793457,0.0244141,0.0149536,0.0201416,0.0262451,0.0253296,0.045166,0.0366211,0.0335693,-0.0228882,0.0201416,0.017395
127,4,0.0195312,0.0125122,-0.0430298,0.0247192,0.0262451,-0.0228882,0.0378418,0.0326538,0.0283813,0.0134277,-0.0164795,0.00640869,0.0112915
128,0,0.0125122,0.0106812,0.00640869,0.0109863,0.0250244,0.0289917,0.027771,0.0311279,0.0415039,0.0195312,-0.0262451,0.0253296,0.0170898
128,1,0.000305176,-0.0457764,0.0131226,0.00793457,0.0238037,0.017395,0.03479,0.0283813,0.0393677,0.0143433,-0.0231934,-0.00274658,0.0115967
128,2,0.0363159,0.0180054,0.022583,0.0134277,0.0012207,0.0128174,0.027771,0.0216675,0.0299072,0.022583,-0.0189209,0.0250244,0.032959
128,3,0.0177002,0.0222778,0.0115967,0.0115967,0.0265503,-0.00579834,0.0302124,0.0210571,-0.0372314,0.0177002,-0.0164795,-0.0012207,0.0296021
128,4,0.0259399,0.0131226,0.00579834,0.0167847,0.0253296,0.0283813,0.0341797,0.0259399,0.0244141,0.0177002,-0.0189209,0.0222778,0.0180054
129,0,0.015564,0.0189209,0.0109863,0.0158691,0.0363159,0.0250244,0.0311279,0.0259399,0.0323486,0.012207,-0.0244141,0.0238037,0.0256348
129,1,0.0112915,0.0473022,0.00793457,0.0170898,0.0198364,0.0186157,0.0393677,0.0256348,0.0408936,0.0253296,-0.0244141,0.071106,0.0088501
129,2,0.0180054,-0.0341797,0.0222778,0.0228882,0.0192261,0.0152588,0.0286865,0.0387573,0.0317383,0.00793457,-0.0268555,0.0213623,0.00213623
129,3,0.00732422,0.0210571,-0.00335693,0.0204468,0.0219727,0.039978,0.0411987,0.0299072,0.0357056,0.0177002,-0.0152588,0.00244141,-0.00427246
129,4,0.0149536,-0.00213623,0.00366211,0.0143433,0.0219727,0.032959,0.0259399,0.00305176,0.0408936,0.00671387,-0.0268555,0.0198364,0.00823975
130,0,0.0201416,0.00915527,0.0161743,0.0289917,0.0341797,0.0259399,-0.0186157,0.0335693,0.0341797,0.0134277,-0.0317383,0.0152588,0.0265503
130,1,0.0088501,0.0189209,0.0222778,0.00518799,0.0234985,0.0213623,0.0323486,0.0405884,0.0311279,0.0296021,-0.0164795,0.0204468,0.017395
130,2,0.0250244,0.00946045,0.00946045,0.00946045,0.012207,0.0143433,0.0164795,0.0292969,0.0177002,0.0161743,-0.0149536,0.0228882,0.0161743
130,3,0.0292969,0.0830078,0.0222778,0.0137329,0.0247192,0.0354004,0.0314331,0.0421143,0.0204468,0.0180054,-0.0271606,0.032959,0.0131226
130,4,0.032959,0.0515747,0.0125122,0.0299072,0.0274658,0.0143433,0.0296021,0.0234985,0.0213623,0.0338745,-0.0250244,0.0204468,0.022583
131,0,0.0259399,0.0305176,0.0219727,0.0137329,0.00396729,0.0457764,0.0210571,0.0302124,0.0253296,0.0292969,-0.0299072,0.0204468,0.0411987
131,1,0.0280762,0.00976562,0.0180054,-0.0158691,0.0195312,0.0308228,-0.0244141,0.0283813,0.0286865,0.0466919,-0.0296021,0.010376,-0.0109863
131,2,0.017395,0.0286865,-0.00396729,0.0125122,0.0186157,0.0274658,0.0314331,0.032959,0.0354004,0.0137329,-0.0341797,0.0152588,0.0167847
131,3,0.0241089,0.0271606,0.0253296,0.0683594,0.0106812,0.0317383,0.0378418,0.0289917,0.0210571,0.0311279,-0.0299072,0.0164795,0.0222778
131,4,0.0180054,0.0216675,0.0177002,0.00366211,0.0106812,0.0286865,0.0411987,-0.00305176,0.0485229,0.0372314,-0.055542,0.0335693,0.0210571
132,0,0.0515747,0.0192261,0.0247192,0.0628662,0.0106812,0.000305176,0.0317383,0.0302124,0.0305176,0.0326538,-0.0317383,0.0170898,-0.00152588
132,1,0.0289917,0.022583,0.0128174,0.0222778,0.0180054,0.0280762,0.0247192,0.0326538,0.0192261,0.0180054,-0.0256348,0.0302124,0.0241089
132,2,0.0299072,0.0244141,0.0195312,0.0186157,0.0115967,0.0100708,0.0317383,0.0292969,0.0405884,0.0271606,-0.0320435,0.0195312,0.000610352
132,3,0.0296021,0.022583,0.00457764,0.00671387,0.0088501,0.0741577,0.00549316,0.0112915,0.0405884,0.0186157,-0.0338745,0.0161743,0.0201416
132,4,0.0228882,0.0198364,0.00915527,0.0143433,0.00396729,0.0250244,0.0152588,0.0177002,0.0366211,-0.012207,-0.0222778,0.00701904,0.0357056
133,0,0.00579834,-0.0143433,0.00946045,0.00854492,0.0271606,0.00762939,0.0131226,0.0308228,0.0344849,0.0317383,-0.0308228,0.0299072,0.0152588
133,1,0.0158691,0.0149536,0.00549316,0.0228882,0.0186157,0.00518799,0.0335693,0.0231934,-0.0296021,0.0289917,-0.0320435,0.0271606,-0.00335693
133,2,0.0192261,0.010376,0.00732422,0.0115967,0.0219727,0.0259399,-0.0201416,0.039978,0.0375366,-0.00701904,-0.0363159,0.00610352,0.0250244
133,3,0.0280762,0.0265503,0.00274658,0.0186157,0.0100708,0.0219727,0.0335693,0.0238037,0.0338745,0.0198364,-0.0393677,0.00854492,0.0164795
133,4,0.0357056,0.0250244,0.00823975,0.0241089,0.00427246,0.0189209,0.0299072,0.0143433,0.032959,0.0259399,-0.0366211,0.0317383,-0.00152588
134,0,0.0308228,0.0112915,0.00732422,0.0216675,0.0222778,-0.00518799,0.0256348,0.032959,-0.0143433,0.0311279,-0.0320435,-0.00549316,0.0213623
134,1,0.0109863,0.0119019,0.0158691,0.010376,-0.000305176,0.0326538,0.0360107,-0.0238037,0.0418091,0.0320435,-0.00518799,0.0198364,0.0274658
134,2,0.0213623,0.0140381,0.0128174,0.0195312,0.00579834,0.00976562,0.038147,0.0296021,0.050354,0.0292969,-0.0271606,0.0335693,-0.00549316
134,3,0.0244141,0.0125122,0.00976562,0.0164795,0.00762939,0.0106812,0.0253296,0.0311279,0.0149536,0.0350952,-0.0531006,0.0198364,0.0262451
134,4,0.0106812,0.017395,0.0256348,0.0216675,0.00457764,0.0314331,0.032959,0.0274658,-0.03479,0.0357056,-0.0164795,0.0222778,0.010376
135,0,0.0265503,0.0164795,0.0198364,0.00701904,0.0152588,0.0167847,0.0152588,0.0216675,0.0326538,0.0296021,-0.0149536,0.0360107,0.0799561
135,1,-0.0262451,0.0161743,0.0183105,0.0100708,-0.000915527,0.0259399,0.0268555,0.0292969,0.0216675,0.0463867,-0.0350952,0.00396729,0.0250244
135,2,-0.000305176,0.0302124,0.00244141,0.00671387,0.00915527,0.0195312,0.0265503,0.0149536,0.0213623,0.0311279,-0.017395,0.0259399,0.0228882
135,3,0.0244141,0.0161743,0.0119019,0.0192261,-0.00579834,0.0372314,0.0204468,0.0289917,0.0265503,0.0601196,-0.0311279,0.0317383,0.0109863
135,4,0.0183105,-0.0213623,0.0357056,0.0189209,0.0564575,0.0442505,0.0418091,0.012207,0.0283813,0.038147,-0.0189209,0.0268555,0.0143433
136,0,0.0164795,0.0189209,0.0280762,0.0256348,0.00518799,-0.0189209,0.0219727,0.0256348,-0.0100708,0.0494385,-0.0280762,0.0292969,0.0210571
136,1,0.0234985,0.0125122,0.00427246,0.0100708,-0.0482178,0.00396729,0.0149536,0.0341797,0.0238037,0.0350952,-0.0299072,0.0250244,0.0210571
136,2,0.027771,0.0183105,0.0180054,0.0125122,0.0341797,0.0125122,0.0241089,0.043335,0.017395,0.0350952,-0.0350952,0.0265503,0.0106812
136,3,-0.0238037,0.0259399,0.0323486,0.0201416,0.015564,0.00457764,0.0354004,0.0183105,0.0195312,0.0344849,-0.065918,0.0161743,0.0357056
136,4,0.0280762,0.0219727,0.00793457,0.0445557,0.0265503,0.0186157,0.0164795,0.0228882,0.0460815,0.043335,-0.0262451,0.0137329,0.0271606
137,0,0.0299072,0.00823975,0.0125122,0.0106812,0.000305176,0.0180054,0.0143433,0.0708008,0.0192261,0.0411987,-0.0344849,0.0140381,0.00671387
137,1,0.015564,0.0372314,0.0210571,0.0100708,0.015564,0.00579834,0.0308228,0.0253296,0.0238037,0.0167847,-0.0268555,0.0216675,0.0308228
137,2,0.0250244,0.0424194,0.0177002,0.0131226,0.00946045,0.0210571,0.00244141,0.0231934,0.0311279,0.0656128,-0.0161743,0.0305176,0.0390625
137,3,0.0234985,0.0128174,0.00854492,0.0204468,-0.00152588,0.00640869,0.017395,0.0201416,0.0378418,0.0469971,-0.0149536,0.0256348,0.0256348
137,4,-0.000915527,0.0289917,0.00976562,0.0201416,-0.00335693,0.0244141,0.00396729,0.0286865,0.0213623,0.0302124,-0.0222778,0.0311279,0.0311279
138,0,0.0579834,0.0012207,0.0112915,0.0238037,0.0149536,0.0183105,-0.0280762,0.017395,0.0305176,-0.0164795,-0.0531006,0.0314331,-0.0262451
138,1,0.0271606,0.0158691,0.0177002,-0.0164795,0.0250244,0.0195312,0.0119019,0.0250244,0.0238037,0.0357056,-0.0231934,0.0262451,-0.00823975
138,2,0.0350952,0.0262451,-0.00854492,0.0112915,0.0192261,0.0244141,0.0192261,0.020752,0.0265503,0.0457764,-0.0366211,0.00701904,0.0286865
138,3,0.0375366,0.0445557,0.0112915,0.00701904,0.0201416,0.0219727,0.0112915,0.0296021,0.0143433,0.0393677,-0.0332642,0.0234985,-0.0393677
138,4,0.0271606,-0.0192261,0.020752,0.0204468,0.0610352,0.0140381,0.0268555,-0.0158691,0.0137329,0.0360107,-0.0189209,0.027771,0.0320435
139,0,0.0131226,0.0228882,0.0265503,0.0213623,0.0125122,0.0109863,0.0262451,0.0115967,0.0253296,0.0512695,-0.03479,0.0390625,0.0253296
139,1,0.0439453,0.012207,0.0274658,0.0253296,0.00854492,0.0219727,0.0140381,0.0262451,0.0222778,0.0314331,-0.032959,0.0387573,0.0241089
139,2,0.0473022,0.0195312,0.0125122,0.0323486,0.0115967,0.0192261,0.012207,0.0164795,0.0183105,0.0405884,-0.03479,0.0485229,0.0137329
139,3,0.0280762,0.0265503,0.0115967,0.0201416,0.0228882,0.017395,0.032959,0.0161743,0.038147,0.0393677,-0.0415039,0.0210571,0.0271606
139,4,0.0112915,0.0296021,0.0244141,-0.0222778,0.0125122,0.00335693,0.0354004,0.0244141,0.0393677,0.039978,-0.0527954,0.0430298,0.0146484
140,0,0.0384521,0.0192261,0.0570679,0.000610352,0.0137329,0.00854492,0.0259399,0.0244141,0.0216675,0.0354004,-0.0262451,0.0463867,0.0222778
140,1,0.0186157,0.0128174,0.0436401,0.022583,0.0143433,0.0274658,0.0585938,0.0137329,0.0143433,0.039978,-0.0271606,0.0296021,0.0164795
140,2,0.0286865,0.0238037,0.0250244,0.0140381,0.0119019,-0.0363159,0.0183105,0.0479126,-0.0332642,0.0222778,-0.0238037,-0.00549316,0.00183105
140,3,0.0271606,0.0558472,0.022583,0.0112915,-0.0177002,0.0088501,-0.00457764,0.0161743,0.0292969,0.0357056,-0.0244141,0.0299072,0.0363159
140,4,0.0256348,0.0167847,0.0088501,0.0125122,0.0158691,0.0344849,0.00366211,0.0344849,0.012207,0.0210571,-0.0366211,0.0238037,0.0128174
141,0,0.0161743,0.0280762,0.0238037,0.0164795,-0.039978,0.0305176,0.0204468,0.0320435,0.0170898,0.0286865,-0.0231934,0.0112915,0.0231934
141,1,-0.0100708,0.0265503,0.020752,-0.00274658,0.0180054,0.0204468,0.0146484,0.032959,0.0747681,0.020752,-0.017395,0.0701904,0.0112915
141,2,0.0402832,0.0134277,0.0213623,0.0238037,0.0128174,-0.00427246,0.0189209,0.0360107,0.0112915,0.0332642,-0.0296021,0.0314331,0.00549316
141,3,0.0424194,0.0228882,0.0210571,0.00549316,0.0152588,0.0137329,0.0149536,0.0662231,0.0164795,0.0384521,-0.0268555,0.0256348,0.0286865
141,4,0.0390625,0.0238037,0.0143433,0.0265503,0.0164795,0.00549316,0.0146484,0.0387573,0.010376,0.0234985,-0.0323486,0.0247192,0.022583
142,0,0.0296021,-0.0140381,0.0320435,0.0265503,0.0131226,0.0109863,0.00976562,0.032959,0.00427246,0.0250244,-0.0296021,0.0250244,0.0283813
142,1,0.0341797,0.0369263,0.027771,0.0228882,-0.0161743,0.0158691,0.0161743,0.0106812,0.0271606,0.0320435,-0.0286865,0.0140381,0.0323486
142,2,0.0213623,0.0317383,0.0213623,-0.0119019,0.00640869,0.00335693,0.0308228,0.0372314,0.0195312,0.0369263,-0.0570679,0.0228882,0.0262451
142,3,0.0210571,0.0158691,0.0198364,0.0616455,0.000915527,0.00915527,0.0265503,0.0280762,0.0137329,0.0219727,-0.0311279,0.0335693,0.0384521
142,4,0.0344849,0.0292969,0.0201416,0.0140381,0.00244141,0.0198364,0.0247192,0.0387573,0.0247192,0.0326538,0.0131226,0.0302124,0.0350952
143,0,0.0195312,0.0289917,0.0250244,0.00793457,0.0146484,-0.0137329,0.0186157,0.0140381,-0.0314331,0.0283813,-0.0259399,0.0576782,0.0244141
143,1,0.0213623,0.0231934,0.0314331,0.0189209,0.0177002,0.0137329,0.0198364,0.0305176,0.0244141,0.0314331,-0.0256348,0.0231934,0.0317383
143,2,0.0320435,0.0466919,0.0167847,0.0161743,0.0308228,0.0198364,0.00823975,0.0320435,0.0357056,0.0204468,-0.032959,-0.0167847,0.032959
143,3,0.0445557,0.0265503,0.0131226,0.00823975,0.0244141,0.00366211,0.00366211,0.0198364,0.0262451,0.0228882,-0.0299072,0.0238037,0.0408936
143,4,0.0250244,0.0241089,0.00518799,0.0201416,0.0262451,0.00610352,0.0201416,0.0268555,0.0256348,0.032959,-0.0250244,0.020752,0.050354
144,0,0.0332642,0.0949097,0.0436401,0.0183105,-0.0540161,0.00549316,0.0164795,0.0735474,0.0292969,0.0256348,-0.0335693,0.015564,0.0408936
144,1,-0.0201416,0.0231934,0.0274658,0.0418091,0.0204468,0.0204468,0.0128174,0.0177002,0.020752,0.017395,-0.0271606,0.0219727,0.0289917
144,2,0.0375366,0.0408936,0.0143433,0.022583,0.0341797,-0.0268555,0.0158691,0.0125122,0.0137329,0.0222778,-0.0427246,0.0341797,0.0354004
144,3,0.0164795,0.0341797,0.0283813,0.0253296,0.0186157,0.0131226,0.0256348,0.0177002,0.020752,0.0558472,-0.0286865,0.0271606,-0.0228882
144,4,0.0204468,0.0259399,0.0137329,0.0531006,0.0198364,0.0146484,0.0271606,0.0231934,0,-0.00671387,-0.0262451,-0.0259399,0.0323486
145,0,0.0238037,0.0280762,0.0778198,0.0189209,0.0311279,0.0250244,0.0274658,0.010376,0.0210571,0.0100708,-0.0204468,0.0183105,0.0189209
145,1,0.0289917,0.0360107,-0.00915527,0.0265503,0.0228882,0.0146484,0.0143433,0.00976562,0.022583,0.0247192,-0.0241089,0.0201416,0.0195312
145,2,0.0354004,0.0158691,0.0289917,0.0265503,0.0253296,0.0106812,0.00701904,0.0146484,0.0201416,-0.0439453,-0.0222778,0.032959,-0.0363159
145,3,-0.0320435,0.0271606,0.0299072,-0.0262451,0.0137329,0.0201416,-0.00213623,0.0253296,0.0326538,0.027771,-0.0125122,0.0109863,0.000610352
145,4,0.0418091,0.0259399,0.0408936,0.0390625,0.0244141,0.0280762,0.00335693,0.0161743,-0.0164795,0.0280762,-0.0262451,-0.020752,0.0283813
146,0,0.0360107,0.0259399,-0.000305176,0.0527954,0.00701904,0.027771,0.0195312,0.0265503,0.0198364,0.0268555,-0.0109863,0.017395,0.00610352
146,1,0.0335693,0.0137329,-0.0424194,0.0219727,0.0244141,0.0146484,0.0189209,0.0180054,0.0274658,0.015564,-0.0250244,0.0354004,0.0219727
146,2,0.0231934,0.0238037,0.0317383,0.00579834,0.0262451,0.015564,0.0195312,0.00732422,0.0167847,0.0167847,-0.0292969,0.0170898,0.0231934
146,3,0.0262451,0.0228882,0.012207,0.0283813,0.022583,0.0201416,0.00579834,0.0109863,0.0204468,0.0274658,-0.0192261,0.0238037,0.0302124
146,4,0.0244141,0.0262451,0.0305176,0.015564,0.0454712,0.0262451,0.0161743,0.186157,0.0231934,0.0302124,-0.0100708,0.0466919,0.0125122
147,0,-0.00427246,0.0247192,0.00335693,0.015564,0.0241089,0.00366211,0.0149536,0.535583,0.0256348,0.00640869,-0.020752,-0.0146484,0.0253296
147,1,0.0274658,0.0253296,0.0292969,0.0115967,0.0213623,0.0012207,0.00732422,0.410156,0.0195312,0.0195312,-0.0210571,0.0286865,0.00823975
147,2,0.0292969,0.00152588,0.0189209,0.0274658,0.0189209,-0.00213623,0.0192261,0.379028,-0.0012207,0.0177002,-0.0360107,0.0320435,0.0244141
147,3,0.0466919,0.0311279,0.0317383,0.0457764,0.0152588,0.00823975,0.0286865,0.758057,0.0170898,0.0680542,-0.0366211,0.0280762,-0.00762939
147,4,0.000610352,0.039978,0.00701904,0.0238037,0.0338745,0.0125122,0.0204468,0.854187,0.0189209,0.0262451,-0.0311279,0.0378418,0.0552368
148,0,0.00671387,0.0393677,0.0256348,0.0390625,0.0506592,0.0177002,-0.000915527,0.940552,0.0283813,0.00610352,-0.0411987,0.0292969,0.0418091
148,1,0.0100708,0.0314331,0.0299072,0.0378418,0.0262451,0.015564,0.0344849,0.829163,0.00305176,0.0198364,-0.0323486,0.0805664,0.0396729
148,2,0.0366211,0.0680542,0.0274658,0.0262451,0.0259399,0.0100708,0.0152588,0.740051,0.00823975,0.0161743,-0.0302124,0.0405884,0.0354004
148,3,0.0198364,0.0332642,0.0289917,0.0195312,0.000610352,0.0518799,0.00854492,0.648499,0.0137329,0.0265503,-0.0198364,0.0299072,0.0335693
148,4,0.0387573,0.0265503,0.0289917,0.0305176,0.0268555,0.00854492,0.0201416,0.495605,0.0128174,0.010376,-0.00976562,0.0390625,0.0402832
149,0,0.0137329,0.0192261,0.0109863,0.00701904,0.0228882,0.0323486,0.0112915,-0.0411987,0.0360107,0.0302124,-0.0228882,0.0247192,0.0454712
149,1,0.0234985,0.0177002,0.0302124,0.032959,0.0317383,0.0186157,0.00701904,-0.585632,0.0189209,0.0234985,-0.0244141,0.0244141,0.0219727
149,2,0.0088501,0.0271606,0.038147,0.0170898,0.0326538,0.0244141,-0.00579834,-0.587769,0.0146484,0.0219727,-0.0265503,0.0189209,0.0317383
149,3,0.0292969,0.022583,0.0268555,0.0299072,0.0213623,0.00793457,0.0152588,-0.55481,0.0256348,0.0167847,-0.0723267,0.0360107,0.0415039
149,4,0.022583,0.0167847,0.0360107,0.0280762,0.0366211,0.0299072,0.0170898,-0.564575,0.0134277,0.0128174,-0.0268555,0.0302124,0.0259399
150,0,0.0259399,0.0158691,0.0262451,0.0115967,0.0296021,0.0253296,0.0137329,-0.557556,0.0210571,-0.0177002,-0.0268555,0.0390625,0.0363159
150,1,0.0326538,0.0280762,0.0183105,0.0326538,0.020752,0.0164795,0.010376,-0.500183,0.0299072,0.0112915,-0.0314331,0.0421143,0.0195312
150,2,0.0418091,0.0378418,0.0299072,0.055542,0.0177002,0.020752,0.0219727,-0.40863,0.0164795,0.0164795,-0.00701904,0.0253296,0.032959
150,3,0.0402832,0.0363159,0.0320435,0.0137329,0.0234985,0.017395,-0.00671387,-0.123901,0.00518799,0.0228882,-0.0299072,0.0354004,0.0424194
150,4,0.010376,0.0311279,0.0375366,0.0332642,0.0326538,0.0335693,0.0201416,-0.121155,0.0100708,0.0219727,-0.0262451,0.020752,0.0314331
151,0,0.0244141,0.022583,0.0302124,0.0222778,0.0296021,0.0170898,0.0143433,-0.109863,0.0158691,0.0411987,-0.03479,0.0384521,0.0540161
151,1,0.0088501,0.0247192,0.0323486,0.0244141,0.0265503,0.0244141,-0.00335693,-0.107117,0.0161743,0.0140381,-0.0234985,0.0308228,0.0112915
151,2,0.0250244,0.0210571,0.0289917,0.0262451,0.0128174,0.0131226,0.00396729,-0.114136,0.0170898,0.0106812,-0.00152588,0.0222778,0.0372314
151,3,0.0280762,0.0192261,0.0430298,0.0323486,0.027771,0.0201416,0.00579834,-0.0875854,0.0183105,0.0262451,-0.0323486,0.0326538,0.0271606
151,4,0.032959,0.0317383,0.0363159,0.0296021,0.0186157,0,0.00549316,-0.0735474,0.00976562,0.0152588,0.00488281,0.0332642,0.0427246
152,0,0.0289917,0.0228882,0.0323486,0.0268555,0.0302124,0.032959,0.0222778,-0.812073,0.0271606,0.010376,-0.0222778,0.0146484,0.0247192
152,1,0.0543213,-0.00793457,0.0363159,0.0375366,0.0479126,0.015564,0.00976562,-0.810852,0.0167847,0.0149536,-0.0250244,0.0274658,0.0299072
152,2,0.00335693,0.0286865,0.0305176,0.0262451,0.0247192,0.00854492,0.00518799,-0.708313,0.0137329,0.0299072,-0.0152588,0.0299072,0.0552368
152,3,0.0265503,0.0146484,0.0268555,0.0274658,0.015564,0.017395,0.0161743,-0.61554,0.0228882,0.0189209,-0.0244141,0.0350952,0.0750732
152,4,0.0476074,0.0271606,0.0289917,-0.00701904,0.0268555,0.0314331,0.0393677,-0.542603,0.0115967,0.0323486,-0.0289917,0.0238037,0.0256348
153,0,0.0131226,0.0192261,0.0271606,0.0115967,0.0250244,0.0198364,-0.0012207,-0.480347,0.0256348,0.0231934,-0.0170898,0.039978,0.0436401
153,1,0.0204468,0.00213623,0.0259399,0.0228882,0.017395,0.0250244,0.0177002,-0.44281,0.00305176,0.0088501,-0.0280762,0.0439453,0.0167847
153,2,0.0204468,0.0180054,0.0384521,0.0357056,0.0314331,0.0445557,0.00915527,-0.385132,0.00274658,0.0158691,-0.0271606,0.0366211,0.0350952
153,3,0.0253296,0.0344849,0.0384521,0.0256348,0.0332642,0.0274658,0.0228882,-0.375366,0.0576782,0.0140381,-0.022583,-0.00549316,0.0491333
153,4,0.0332642,0.0494385,0.038147,0.0234985,0.0405884,0.0210571,0.0109863,-0.342407,0.0167847,0.00854492,-0.0302124,0.0219727,0.0341797
154,0,0.0265503,0.0186157,0.0271606,0.00854492,0.0338745,0.0320435,0.0271606,-0.272217,0.0280762,0.0213623,-0.0341797,0.0259399,0.0161743
154,1,0.0146484,0.0256348,0.0460815,0.0314331,0.0289917,0.0167847,0.0195312,-0.0436401,0.00732422,0.0143433,-0.0335693,0.0308228,0.0143433
154,2,0.0213623,0.0283813,0.039978,0.0256348,0.0238037,0.0219727,0.0286865,-0.12146,0.0213623,0.0469971,-0.0216675,0.032959,0.0299072
154,3,0.0268555,-0.0424194,0.0299072,0.0540161,-0.0131226,0.0341797,0.0238037,-0.176697,0.0112915,0.00915527,-0.022583,0.0204468,0.0320435
154,4,0.0372314,0.0469971,0.0234985,0.0421143,0.0442505,0.00640869,-0.0119019,-0.216675,0.0335693,-0.0164795,-0.0354004,0.0473022,-0.0167847
155,0,-0.0384521,0.0115967,0.0152588,-0.0262451,0.0366211,0.0167847,0.012207,-0.206299,0.0149536,0.0112915,-0.0210571,0.0283813,0.0265503
155,1,-0.045166,0.0311279,0.0274658,0.0561523,0.022583,0.0256348,0.0387573,-0.188904,0.00793457,0.0106812,-0.022583,0.015564,0.0259399
155,2,0.0704956,0.0378418,0.043335,0.0299072,0.0219727,0.027771,0.012207,-0.172119,0.00518799,0.00701904,-0.0354004,0.0213623,0.0408936
155,3,0.0234985,-0.0183105,0.0308228,0.0265503,-0.0457764,0.0161743,0.0137329,-0.199585,0.0183105,0.00427246,-0.0131226,0.0213623,0.0308228
155,4,0.104675,0.0387573,0.0375366,0.0726318,0.0378418,0.0152588,0.010376,-0.101929,0.00579834,0.00732422,-0.0210571,0.0280762,0.0384521
156,0,0.00915527,0.0189209,0.0576782,0.0344849,0.0341797,-0.0283813,0.0286865,-0.065918,0.0418091,0.00915527,-0.0314331,0.0186157,0.0354004
156,1,0.0213623,0.0320435,0.0283813,0.0256348,0.010376,0.032959,0.0192261,-0.0689697,0.0137329,0.0332642,-0.0213623,0.0250244,0.0778198
156,2,0.0131226,0.0131226,0.0119019,0.0320435,0.0308228,0.0335693,0.000610352,-0.0268555,0.0598145,0.0204468,-0.0292969,0.0262451,0.0350952
156,3,0.0180054,0.0088501,0.0204468,0.0274658,0.0405884,0,0.0158691,-0.010376,0.0286865,0.00396729,0.00823975,0.0384521,0.0332642
156,4,-0.0308228,0.0256348,0.0320435,0.0357056,0.0408936,0.0146484,0.0128174,0.00152588,0.0189209,0.0149536,-0.0216675,0.0247192,0.0283813
157,0,0.0234985,0.0115967,0.0341797,0.0457764,0.0177002,0.038147,-0.00701904,0.0152588,0.0219727,0.0216675,-0.03479,0.00457764,0.0430298
157,1,0.0228882,0.0265503,0.0299072,0.0283813,0.0201416,0.0396729,0.0299072,0.0146484,0.0204468,0.0189209,-0.0216675,0.0323486,0.0210571
157,2,0.0180054,0.0125122,0.0299072,0.0357056,0.0952148,0.0170898,0.0210571,-0.010376,0.000610352,0.0204468,-0.0134277,0.0317383,0.039978
157,3,0.0198364,0.0317383,0.0317383,0.0332642,0.0363159,0.0271606,0.0222778,0.0372314,0.0192261,0.017395,-0.0302124,0.0137329,0.0354004
157,4,0.0195312,0.010376,0.0271606,0.0244141,0.0302124,0.0357056,-0.00823975,0.0558472,0.00915527,0.0537109,-0.00915527,0.0134277,0.0390625
158,0,0.0198364,0.0411987,0.032959,0.0317383,0.00915527,0.022583,0.0201416,0.0552368,0.0109863,0.00213623,-0.00976562,0.0125122,0.0344849
158,1,0.00396729,0.0177002,0.0537109,0.0521851,0.0219727,0.045166,0.0411987,0.0628662,0.00579834,0.00671387,-0.0262451,-0.0262451,0.0305176
158,2,0.0198364,0.0112915,0.00976562,0.0292969,0.0244141,0.00793457,0.0210571,0.0732422,0.00427246,0.0164795,-0.0149536,0.0787354,0.0369263
158,3,0.0219727,0.0088501,0.0204468,0.0253296,0.0521851,0.0177002,0.0289917,0.132751,0.012207,0.0088501,-0.0582886,0.0354004,0.0296021
158,4,0.0317383,0.0253296,-0.00366211,0.015564,0.0369263,-0.0378418,0.0231934,0.0683594,0.0201416,0.0170898,-0.0189209,0.0216675,0.0244141
159,0,0.0167847,0.0302124,0.0439453,0.0268555,0.0375366,0.0561523,0.0256348,0.0738525,0.0112915,0.0189209,-0.0305176,0.0253296,0.0363159
159,1,0.0219727,-0.00976562,0.0180054,0.0271606,-0.017395,0.0192261,0.0219727,0.0869751,0.0195312,0.0247192,-0.0335693,0.0161743,0.0384521
159,2,0.0204468,0.0216675,0.0228882,0.0466919,0.0332642,0.0430298,0.012207,0.0933838,-0.0180054,0.00793457,-0.0216675,0.012207,0.0149536
159,3,0.0195312,0.0216675,0.0106812,0.0238037,0.0201416,0.0289917,0.0354004,0.0790405,0.0561523,0.00762939,-0.0180054,0.0198364,0.038147
159,4,0.0131226,0.0198364,0.022583,0.0119019,0.00427246,0.0332642,0.0250244,0.0958252,-0.0119019,0.010376,-0.0161743,-0.015564,0.0405884
160,0,0.00640869,0.0686646,0.0296021,0.0320435,0.0796509,0.0283813,0.0543213,0.0482178,0.0170898,0.0146484,-0.0216675,0.00976562,0.00518799
160,1,0.0268555,0.0265503,0.0238037,-0.0140381,0.0387573,0.0332642,0.0341797,0.0854492,0.010376,0.0253296,-0.0323486,0.010376,0.0131226
160,2,0.00610352,0.0216675,0.0253296,0.0427246,0.0247192,0.0253296,0.0256348,0.0357056,0.0134277,0.0274658,-0.0344849,0.0140381,0.0177002
160,3,0.00488281,0.0268555,0.0170898,0.038147,0.0192261,0.0326538,0.0262451,0.104675,0.0177002,-0.00305176,-0.0314331,0.0164795,-0.00213623
160,4,0.0308228,0.0323486,0.0314331,0.0378418,0.0241089,0.0234985,0.0302124,0.0933838,0.0338745,0.0170898,-0.0201416,0.0265503,0.0192261
161,0,0.0115967,0.0228882,0.0238037,0.0286865,0.0302124,0.0405884,0.0292969,0.106812,0.0317383,0.0167847,-0.0201416,-0.0100708,0.0262451
161,1,0.0149536,0.00793457,0.022583,0.0366211,0.0186157,0.0128174,0.0250244,0.104675,0.0115967,-0.00152588,-0.0134277,0.0180054,0.0747681
161,2,-0.0244141,0.0482178,0.0262451,0.0372314,0.0393677,0.0363159,0.0302124,0.0985718,0.0195312,0.0195312,-0.0296021,0.0119019,0.0280762
161,3,0.0396729,0.0210571,-0.00518799,0.0500488,0.0366211,0.0921631,0.0366211,0.109558,0.00335693,0.00640869,-0.0256348,0.00640869,0.0256348
161,4,0.017395,0.0292969,0.022583,0.0363159,0.0457764,0.0146484,0.0244141,0.102844,0.0231934,0.0115967,-0.0164795,0.0158691,0.0280762
162,0,0.0088501,-0.00762939,0.0256348,0.022583,0.00183105,0.0369263,0.0344849,0.0622559,0.0271606,0.0247192,-0.00305176,0.0161743,0.0234985
162,1,0.0299072,0.0198364,0.0308228,0.0219727,0.0238037,0.0354004,0.0283813,0.108643,0.0167847,0.0238037,-0.039978,0.022583,0.0302124
162,2,-0.0256348,0.0177002,0.0296021,-0.00793457,0.0228882,0.0427246,0.0430298,0.107422,0.0152588,0.0509644,-0.045166,0.0311279,0.0881958
162,3,0.0231934,0.0271606,0.0289917,0.0213623,0.0259399,0.0360107,0.0369263,0.100098,0.00946045,0.0167847,-0.0314331,0.0204468,0.0680542
162,4,0.0149536,0.0186157,-0.0106812,0.010376,0.0350952,0.03479,0.0228882,0.103149,0.0112915,0.00427246,-0.0228882,0.0262451,0.0296021
163,0,0.0582886,0.0219727,0.000915527,0.0332642,0.0256348,0.0463867,0.0582886,0.0967407,0.0326538,0.0143433,-0.0286865,0.00915527,0.0320435
163,1,0.0112915,0.00946045,0.022583,0.0177002,0.0448608,0.0369263,0.0244141,0.0860596,0.0164795,0.0161743,-0.0259399,0.000610352,0.0338745
163,2,0.0238037,0.0183105,0.00732422,0.0216675,0.0332642,0.00671387,0.0198364,0.0915527,0.0140381,0.0247192,-0.00976562,0.0131226,0.0216675
163,3,0.0131226,0.00640869,0.0128174,0.0457764,0.0247192,0.0305176,0.0393677,0.0762939,0.0262451,0.00762939,-0.0167847,-0.00701904,0.0164795
163,4,0.0140381,0.0134277,0.0234985,0.0231934,0.0341797,0.0421143,0.0268555,0.107727,0.0161743,-0.0198364,-0.0259399,0.0177002,-0.00488281
164,0,0.0204468,0.0088501,0.0149536,0.0289917,0.0299072,0.0189209,0.0198364,0.101318,0.00946045,0.00213623,-0.0360107,0.0106812,0.0396729
164,1,0.0134277,0.022583,0.0769043,0.0283813,0.0247192,0.0152588,0.0317383,0.0958252,-0.0463867,0.0115967,-0.0137329,0.00518799,0.0280762
164,2,0.0222778,0.0454712,0.0244141,0.0247192,-0.00427246,0.0457764,0.0271606,0.0927734,0.0158691,0.00915527,-0.0189209,0.0167847,0.012207
164,3,0.0265503,0.015564,0.0112915,0.0338745,0.0268555,-0.00732422,0.0335693,0.0872803,0.0537109,-0.0119019,-0.0210571,0.00976562,0.0170898
164,4,0.0262451,0.00183105,0.0262451,0.0198364,0.0408936,0.0418091,0.0286865,0.0799561,0.0323486,0.012207,-0.0128174,-0.00244141,0.015564
165,0,0.0296021,0.0143433,-0.0415039,0.0256348,0.0216675,0.0601196,0.0378418,0.0994873,0.0216675,0.0170898,-0.0228882,0.0198364,0.0274658
165,1,0.0256348,0.0186157,0.0201416,0.0314331,0.032959,0.015564,0.0177002,0.0964355,0.00396729,0.00213623,-0.0125122,0.0192261,0.0360107
165,2,0.0238037,0.0299072,0.0143433,0.0299072,0.0271606,0.0500488,0.0320435,0.062561,0.0314331,0.0234985,0.00854492,0.010376,0.0289917
165,3,-0.00946045,0.0341797,0.00610352,0.0183105,0.0177002,0.0469971,0.0354004,0.065918,0.00457764,0.0241089,-0.00640869,0.00793457,0.0195312
165,4,0.0177002,0.0167847,0.0308228,0.0454712,0.0265503,0.0402832,0.0369263,0.0814819,0.0201416,0.0253296,-0.00396729,0.0186157,-0.0146484
166,0,0.0189209,0.00640869,0.0100708,0.0204468,0.0296021,0.00183105,0.0308228,0.0872803,0.0274658,0.0106812,-0.0228882,0.0946045,0.00976562
166,1,0.0262451,0.0088501,0.0448608,0.0317383,0.0305176,0.0234985,0.0302124,0.0973511,0.0137329,0.0198364,-0.0323486,0.0100708,0.0149536
166,2,0.00366211,0.0460815,0.0296021,0.0250244,0.0372314,0.0311279,0.0253296,0.083313,0.0234985,0.0128174,-0.0189209,0.0201416,0.043335
166,3,0.00823975,-0.00213623,0.0268555,0.0250244,0.0299072,0.03479,0.0302124,0.098877,0.0167847,0.0183105,-0.0238037,-0.00183105,0.0192261
166,4,0.0268555,0.0106812,0.0143433,0.0323486,0.0088501,0.0350952,0.0341797,0.0964355,0.012207,0.0198364,-0.0430298,0.0161743,0.00701904
167,0,0.0762939,0.00793457,0.0100708,0.0384521,0.0259399,0.0296021,0.0378418,0.0747681,0.0115967,0.0311279,-0.0177002,0.00701904,0.00854492
167,1,0.017395,0.0415039,0.0134277,0.0146484,0.0100708,0.0253296,0.0430298,0.0802612,-0.0137329,0.0265503,-0.0161743,0.0146484,0.0180054
167,2,-0.00274658,0.0177002,-0.0115967,0.0393677,0.0234985,0.0186157,0.0360107,0.0640869,0.0769043,0.0195312,-0.0201416,0.0628662,0.0210571
167,3,0.0708008,0.0228882,0.038147,0.0341797,0.0222778,0.0372314,0.0482178,0.0830078,0.0259399,0.0241089,-0.010376,0.015564,0.00183105
167,4,0.0112915,0.00244141,0.0253296,0.0241089,-0.012207,0.055542,0.043335,0.100708,0.0213623,0.015564,-0.0271606,-0.00823975,0.0213623
168,0,0.010376,0.0164795,0.0140381,0.0360107,0.0299072,0.0250244,0.032959,0.0656128,0.0219727,0.0259399,-0.0405884,0.012207,0.0158691
168,1,0.0143433,0.00915527,0.0204468,0.022583,0.0320435,0.0326538,0.0296021,0.0787354,0.0201416,0.0366211,-0.027771,0.0115967,0.0289917
168,2,0.00946045,0.00518799,0.0283813,0.0723267,0.0479126,0.0323486,0.0622559,0.0671387,0.0210571,-0.0302124,-0.0234985,0.0210571,0.0183105
168,3,0.00427246,-0.000915527,0.0198364,0.0195312,0.00854492,0.0305176,0.0219727,0.0732422,0.0250244,0.03479,-0.0238037,0.0125122,0.00946045
168,4,0.0143433,0.0186157,0.0167847,-0.020752,0.0256348,0.0357056,0.0354004,0.0671387,0.0238037,0.0643921,-0.0125122,0.0158691,0.00305176
169,0,0.0189209,0.0170898,0.015564,0.0280762,0.0180054,0.0369263,0.0289917,0.0775146,-0.00396729,0.0231934,-0.017395,0.0357056,0.017395
169,1,-0.0524902,0.00732422,0.0131226,0.0137329,0.0137329,0.0299072,0.0756836,0.104065,0.0192261,0.0311279,-0.0567627,0.0213623,0.0170898
169,2,0.00823975,0.010376,0.0244141,0.0161743,-0.0161743,0.0350952,0.0497437,0.116272,0.0115967,0.0213623,-0.0515747,0.00518799,0.0198364
169,3,0.012207,0.0177002,0,0.015564,0.022583,-0.0143433,0.0201416,0.0796509,0.0259399,0.0228882,-0.0146484,0.0222778,0.0152588
169,4,0.0250244,-0.00183105,0.022583,0.0152588,0.00915527,0.00823975,0.0289917,0.0909424,0.0427246,0.0311279,-0.0161743,0.0137329,0.0228882
170,0,0.0201416,-0.00366211,-0.000610352,0.0265503,0.027771,0.0323486,0.0256348,0.0744629,0.0335693,0.0158691,-0.0241089,0.00823975,0.0177002
170,1,0.0143433,0.010376,0.0177002,0.0128174,0.0289917,0.0344849,0.0366211,0.0585938,0.00701904,0.0811768,-0.0100708,0.0296021,-0.0354004
170,2,-0.0244141,0.0161743,0.00915527,0.0189209,0.0125122,0.0180054,0.0262451,0.0454712,0.0265503,0.0378418,-0.00732422,0.0134277,0.0143433
170,3,0.0140381,0.0244141,0.0476074,0.0274658,0.0323486,0.0326538,0.0219727,0.0704956,0.0204468,0.017395,-0.00946045,0.00305176,0.00183105
170,4,0.00640869,0.0195312,0.0280762,0.0134277,0.0335693,0.0286865,0.0354004,0.0698853,0.0241089,0.0299072,-0.0119019,0.0408936,0.0164795
171,0,0.0161743,0.0109863,0.0186157,0.0326538,0.03479,0.0335693,0.0323486,0.0762939,0.0552368,0.0299072,-0.0195312,-0.0335693,0.0259399
171,1,0.0204468,0.00793457,0.000915527,0.0134277,0.0180054,0.0378418,0.017395,0.0674438,-0.0143433,0.0418091,-0.0112915,-0.0238037,0.0308228
171,2,0.0201416,0.0106812,-0.0140381,0.0170898,0.0216675,-0.00305176,0.0448608,0.0799561,0.0152588,0.0134277,-0.0146484,0.0253296,0.0137329
171,3,0.0149536,-0.00244141,0.00518799,0.0299072,0.00244141,0.0137329,0.0506592,0.0790405,0.0164795,0.0372314,-0.0338745,0.0253296,0.00976562
171,4,0.0283813,0.0524902,0.000305176,0.0192261,0.0100708,0.0366211,0.0369263,0.0726318,0.0195312,0.0292969,-0.0335693,-0.00244141,0.00396729
172,0,0.0234985,0.010376,0.015564,0.010376,0.0344849,0.0302124,0.0244141,0.0622559,0.0479126,-0.0125122,-0.020752,-0.000915527,-0.0192261
172,1,0.0152588,0.0140381,0.0268555,0.0131226,0.022583,0.0354004,0.0259399,0.0753784,0.0802612,0.0408936,-0.0335693,0.0500488,0.00793457
172,2,0.0186157,0.00671387,0.00854492,0.0170898,0.0180054,0.0177002,0.0308228,0.0521851,0.0250244,0.0186157,-0.0228882,0.0106812,0.0112915
172,3,0.0128174,0.0106812,0.00732422,0.0234985,0.0646973,0.0372314,0.0299072,0.0820923,0.0378418,0.03479,-0.0253296,0.00335693,0.0149536
172,4,0.000610352,0.0106812,0.00854492,0.00701904,0.00366211,0.0244141,0.020752,0.0579834,0.0183105,0.0390625,-0.0222778,0.0183105,0.0231934
173,0,0.0198364,0.0274658,0.0335693,0.0296021,-0.0241089,0.0268555,0.0198364,0.03479,0.032959,0.0448608,-0.027771,0.020752,0.027771
173,1,0.0216675,0.0164795,0.00701904,0.00915527,0.0357056,0.00671387,0.0323486,0.0570679,0.0244141,0.0457764,-0.0314331,0.0201416,0.0137329
173,2,0.00366211,0.0210571,0.0112915,0.0338745,0.0378418,0.0234985,0.0238037,0.012207,0.0326538,0.0219727,-0.0238037,-0.0012207,0.0161743
173,3,0.0234985,0.00793457,-0.00183105,0.0247192,0.0180054,0.045166,0.0180054,0.057373,0.038147,0.0164795,-0.0228882,0.0115967,0.0354004
173,4,0.0357056,0.0332642,0.00213623,0.0445557,0.0186157,0.03479,0.0112915,0.0494385,0.032959,0.0274658,-0.0088501,0.00976562,0.0115967
174,0,-0.00457764,0.0161743,0.0112915,0.0674438,0.0192261,0.027771,-0.0234985,0.062561,0.0314331,0.067749,-0.0137329,0.0201416,0.000610352
174,1,0.0238037,0.010376,0.000610352,0.0195312,0.0244141,0.020752,0.0234985,0.0634766,0.0302124,0.0180054,-0.0204468,0.0222778,0.0177002
174,2,0.0357056,0.0128174,0.00640869,0.0311279,0.00579834,0.0167847,0.0234985,0.0958252,0.0299072,0.0152588,0.0131226,0.0137329,0.0109863
174,3,0.0408936,0.0250244,0.00305176,0.00183105,0.015564,0.0292969,0.0338745,0.0537109,0.0250244,0.020752,-0.0250244,0.0424194,0.0213623
174,4,0.0674438,0.0161743,0.012207,0.0631714,0.0274658,0.0137329,0.0250244,0.0274658,0.0146484,0.0234985,-0.0238037,0.012207,0.0256348
175,0,0.0192261,0.0186157,0.00213623,0.0283813,0.00335693,0.0192261,0.0286865,0.0543213,0.0213623,0.0350952,-0.0320435,0.00854492,0.0262451
175,1,0.0210571,0.0100708,0.0137329,0.0119019,-0.000610352,0.0170898,0.0546265,0.0561523,0.0311279,-0.0274658,-0.0180054,0.0164795,0.017395
175,2,0.0204468,0.0143433,0.00274658,0.0115967,0.0253296,0.027771,0.0558472,0.0616455,0.0149536,0.0192261,-0.0262451,0.0250244,0.0192261
